0,-0.3515625,0.048828125,-0.024414063,-0.097656250.0005,-0.708007813,0.078125,0.068359375,-0.0927734380.001,-0.766601563,0.126953125,0.078125,00.0015,-0.454101563,0.15625,0.078125,-0.058593750.002,0.17578125,0.170898438,0.068359375,-0.1123046880.0025,0.239257813,0.131835938,0.034179688,-0.0683593750.003,-0.458984375,0.13671875,0.053710938,-0.11718750.0035,-0.83984375,0.087890625,0.014648438,-0.0830078130.004,-0.708007813,0.063476563,0.05859375,-0.097656250.0045,-0.3515625,0.048828125,0.01953125,-0.1708984380.005,-0.122070313,0.053710938,-0.009765625,-0.156250.0055,0.004882813,0.122070313,-0.004882813,-0.1025390630.006,0,0.126953125,0.034179688,-0.0292968750.0065,-0.170898438,0.102539063,0.122070313,-0.1025390630.007,-0.766601563,0.146484375,0.13671875,-0.11718750.0075,-1.54296875,0.131835938,0.087890625,-0.0830078130.008,-1.372070313,0.13671875,0.078125,-0.0683593750.0085,-0.3515625,0.107421875,0.063476563,-0.0830078130.009,0.5859375,0.112304688,0.034179688,-0.0244140630.0095,1.127929688,0.15625,0.083007813,-0.1074218750.01,0.869140625,0.17578125,0.078125,-0.1025390630.0105,0.3125,0.126953125,0.087890625,-0.058593750.011,-0.278320313,0.09765625,0.112304688,-0.0439453130.0115,-0.68359375,0.078125,0.068359375,-0.0292968750.012,-0.053710938,0.078125,0.078125,-0.058593750.0125,0.791015625,0.078125,0.078125,-0.019531250.013,0.947265625,0.078125,0.043945313,-0.0537109380.0135,0.7421875,0.0390625,0.043945313,-0.0830078130.014,0.356445313,0.078125,0.087890625,-0.0732421880.0145,0.336914063,0.107421875,0.087890625,-0.0146484380.015,0.942382813,0.131835938,0.107421875,-0.097656250.0155,1.328125,0.092773438,0.107421875,-0.0537109380.016,0.629882813,0.092773438,0.102539063,-0.019531250.0165,-0.1171875,0.131835938,0.122070313,-0.058593750.017,-0.185546875,0.107421875,0.1171875,-0.1220703130.0175,-0.073242188,0.107421875,0.034179688,-0.1074218750.018,0.034179688,0.09765625,0.009765625,-0.11718750.0185,-0.063476563,0.1171875,-0.024414063,-0.0683593750.019,-0.09765625,0.073242188,-0.01953125,-0.0488281250.0195,-0.102539063,0.1171875,0.053710938,-0.0830078130.02,-0.107421875,0.107421875,0.043945313,-0.0341796880.0205,-0.024414063,0.112304688,0.014648438,0.0439453130.021,0.131835938,0.107421875,0.014648438,-0.03906250.0215,0.161132813,0.102539063,0.063476563,0.0048828130.022,0.107421875,0.083007813,0.112304688,-0.0341796880.0225,0.068359375,0.13671875,0.087890625,-0.058593750.023,0.053710938,0.112304688,0.05859375,00.0235,-0.112304688,0.083007813,0.014648438,0.0048828130.024,-0.302734375,0.122070313,0.05859375,-0.0341796880.0245,0.087890625,0.083007813,0.043945313,0.019531250.025,0.473632813,0.083007813,0.053710938,0.0097656250.0255,0.854492188,0.122070313,0.048828125,0.019531250.026,1.030273438,0.141601563,0.078125,0.0292968750.0265,0.727539063,0.1171875,0.034179688,-0.0146484380.027,0.229492188,0.078125,0.078125,-0.0634765630.0275,-0.068359375,0.048828125,0.073242188,-0.11718750.028,-0.29296875,0.068359375,0.073242188,-0.1806640630.0285,-0.424804688,0.083007813,0.043945313,-0.2001953130.029,-0.44921875,0.083007813,0.073242188,-0.1806640630.0295,-0.41015625,0.087890625,0.102539063,-0.253906250.03,-0.4296875,0.122070313,0.053710938,-0.2050781250.0305,-0.161132813,0.078125,0.014648438,-0.0732421880.031,0.419921875,0.083007813,0.078125,-0.0439453130.0315,0.60546875,0.083007813,0.078125,0.0488281250.032,0.541992188,0.078125,0.078125,0.0878906250.0325,0.581054688,0.083007813,0.078125,0.0488281250.033,0.478515625,0.112304688,0.05859375,0.097656250.0335,0.068359375,0.09765625,0.0390625,0.0341796880.034,-0.502929688,0.083007813,0.087890625,-0.03906250.0345,-0.659179688,0.1171875,0.107421875,-0.0634765630.035,-0.576171875,0.073242188,0.073242188,-0.0439453130.0355,-0.5078125,0.073242188,0.073242188,-0.0048828130.036,-0.444335938,0.048828125,0,00.0365,-0.3515625,0.087890625,-0.004882813,-0.0488281250.037,-0.517578125,0.048828125,0.029296875,-0.0683593750.0375,-0.776367188,0.092773438,0.01953125,-0.0292968750.038,-0.336914063,0.107421875,0.048828125,-0.0634765630.0385,0.190429688,0.078125,0.048828125,-0.0439453130.039,0.283203125,0.078125,0.087890625,-0.03906250.0395,0.229492188,0.078125,0.043945313,-0.0927734380.04,0.170898438,0.083007813,0.087890625,-0.1513671880.0405,0.395507813,0.083007813,0.043945313,-0.1220703130.041,0.419921875,0.078125,-0.024414063,-0.11718750.0415,-0.05859375,0.087890625,0.034179688,-0.097656250.042,-0.258789063,0.073242188,0.014648438,-0.0097656250.0425,-0.151367188,0.092773438,0.024414063,00.043,-0.05859375,0.1171875,0.063476563,0.0537109380.0435,-0.024414063,0.078125,0.063476563,-0.0146484380.044,-0.024414063,0.1171875,0.107421875,-0.2587890630.0445,0,0.083007813,0.073242188,-0.3271484380.045,-0.092773438,0.107421875,0.073242188,-0.27343750.0455,0.400390625,0.102539063,0.024414063,-0.156250.046,1.181640625,0.092773438,0.034179688,-0.0146484380.0465,1.870117188,0.1171875,0.083007813,0.0927734380.047,1.66015625,0.073242188,0.05859375,0.1806640630.0475,0.708007813,0.087890625,0.034179688,0.2099609380.048,0.161132813,0.083007813,0.053710938,0.1416015630.0485,-0.024414063,0.122070313,0.078125,0.0732421880.049,-0.3515625,0.1171875,0.063476563,0.019531250.0495,-0.737304688,0.112304688,0.014648438,0.0292968750.05,-1.03515625,0.15625,-0.004882813,-0.0341796880.0505,-1.533203125,0.146484375,0,0.058593750.051,-1.73828125,0.073242188,0.004882813,0.1318359380.0515,-1.30859375,0.05859375,0.014648438,0.1855468750.052,-0.849609375,0.09765625,0.087890625,0.0781250.0525,-0.571289063,0.107421875,0.078125,0.0048828130.053,-0.473632813,0.107421875,0.1171875,-0.0537109380.0535,-0.620117188,0.102539063,0.048828125,-0.0097656250.054,-0.4296875,0.073242188,0.05859375,0.0878906250.0545,0.034179688,0.087890625,0.053710938,0.0146484380.055,0.25390625,0.048828125,0.102539063,-0.1611328130.0555,0.185546875,0.053710938,0.078125,-0.1611328130.056,0.151367188,0.048828125,0.112304688,-0.1025390630.0565,0.234375,0.073242188,0.078125,-0.0244140630.057,0.356445313,0.083007813,0.034179688,-0.0292968750.0575,0.708007813,0.0390625,0.083007813,-0.1269531250.058,0.458984375,0.024414063,0.063476563,-0.0488281250.0585,-0.05859375,0.083007813,0.043945313,-0.0683593750.059,-0.13671875,0.102539063,0.05859375,-0.0488281250.0595,-0.126953125,0.09765625,0.0390625,-0.058593750.06,-0.09765625,0.078125,0.083007813,-0.058593750.0605,-0.1171875,0.102539063,0.034179688,-0.019531250.061,-0.073242188,0.13671875,0.009765625,-0.0341796880.0615,-0.034179688,0.13671875,0.048828125,-0.0048828130.062,0.05859375,0.083007813,0.107421875,-0.0292968750.0625,0.068359375,0.048828125,0.083007813,-0.0732421880.063,-0.004882813,0.092773438,0.083007813,-0.1074218750.0635,0.034179688,0.009765625,0.078125,-0.0878906250.064,0.014648438,0.063476563,0.102539063,-0.058593750.0645,0.063476563,0.107421875,0.063476563,-0.0292968750.065,0.05859375,0.1171875,0.053710938,-0.0488281250.0655,0.029296875,0.107421875,0.0390625,-0.11718750.066,0,0.102539063,0.087890625,-0.0878906250.0665,0.004882813,0.078125,0.063476563,-0.1123046880.067,0.043945313,0.083007813,0.0390625,-0.0927734380.0675,0.034179688,0.1171875,0.063476563,-0.1074218750.068,0.048828125,0.087890625,-0.01953125,-0.0830078130.0685,0.092773438,0.073242188,0.004882813,-0.058593750.069,0.107421875,0.092773438,0.034179688,-0.058593750.0695,-0.112304688,0.073242188,0.014648438,-0.0488281250.07,-0.21484375,0.087890625,0.01953125,-0.058593750.0705,0.405273438,0.126953125,0.05859375,-0.0537109380.071,0.795898438,0.078125,0.034179688,-0.0634765630.0715,0.517578125,0.083007813,0.05859375,-0.1123046880.072,0.283203125,0.087890625,-0.014648438,-0.0878906250.0725,0.190429688,0.078125,0.034179688,-0.0830078130.073,0.185546875,0.107421875,0.0390625,-0.0732421880.0735,0.13671875,0.1171875,0.014648438,-0.0634765630.074,0.107421875,0.078125,0.048828125,-0.11718750.0745,-0.043945313,0.126953125,0.034179688,-0.0732421880.075,-0.849609375,0.107421875,-0.01953125,-0.0292968750.0755,-1.665039063,0.102539063,-0.004882813,-0.0732421880.076,-0.810546875,0.073242188,-0.043945313,-0.019531250.0765,0.185546875,0.087890625,-0.029296875,-0.0732421880.077,0.2734375,0.05859375,0.014648438,-0.1660156250.0775,0.239257813,0.01953125,0,-0.214843750.078,0.659179688,0.01953125,-0.014648438,-0.136718750.0785,1.323242188,0.0390625,0.029296875,-0.0488281250.079,1.157226563,0.087890625,0.073242188,-0.03906250.0795,0.434570313,0.083007813,0.092773438,-0.0488281250.08,0.122070313,0.122070313,0.107421875,00.0805,0.37109375,0.131835938,0.073242188,00.081,0.29296875,0.073242188,0.122070313,-0.0048828130.0815,-0.034179688,0.112304688,0.092773438,-0.058593750.082,-0.087890625,0.05859375,0.009765625,-0.0732421880.0825,0.1171875,0.029296875,0.053710938,-0.0878906250.083,-0.180664063,0.087890625,0.083007813,-0.1318359380.0835,-1.064453125,0.112304688,0.078125,-0.4199218750.084,-1.176757813,0.131835938,0.068359375,-0.8154296880.0845,-0.107421875,0.068359375,0.034179688,-0.9912109380.085,0.830078125,0.01953125,0.014648438,-0.9619140630.0855,0.849609375,0.048828125,0.0390625,-0.5419921880.086,0.5859375,0.043945313,0.083007813,0.1025390630.0865,0.512695313,0.014648438,0.029296875,0.4785156250.087,0.590820313,0.043945313,0.063476563,0.35156250.0875,0.883789063,0.087890625,0.087890625,0.1318359380.088,1.142578125,0.087890625,0.068359375,0.1806640630.0885,0.991210938,0.131835938,0.068359375,0.1660156250.089,0.405273438,0.122070313,0.029296875,0.1269531250.0895,-0.2734375,0.043945313,-0.004882813,0.0878906250.09,-0.4296875,0.014648438,0.073242188,-0.0488281250.0905,-0.327148438,0.034179688,0.043945313,-0.0927734380.091,-0.556640625,0.014648438,0.01953125,-0.0927734380.0915,-0.766601563,0.014648438,0.078125,-0.156250.092,-0.576171875,0.078125,0.05859375,0.0097656250.0925,-0.380859375,0.112304688,0.053710938,0.058593750.093,-0.13671875,0.0390625,0.083007813,-0.0634765630.0935,0.483398438,0.063476563,0.078125,-0.0781250.094,0.830078125,0.053710938,0.048828125,0.1318359380.0945,0.888671875,0.078125,-0.05859375,0.4833984380.095,0.537109375,0.024414063,-0.048828125,0.4248046880.0955,-0.219726563,0.048828125,-0.034179688,0.11718750.096,-0.405273438,0.083007813,-0.034179688,-0.0781250.0965,-0.703125,0.09765625,0.0390625,-0.1074218750.097,-2.319335938,0.126953125,0.092773438,0.1220703130.0975,-3.002929688,0.131835938,0.131835938,0.0781250.098,-0.981445313,0.102539063,0.13671875,-0.1074218750.0985,1.030273438,0.107421875,0.092773438,-0.0927734380.099,1.401367188,0.068359375,0.063476563,0.058593750.0995,1.064453125,0.087890625,0.01953125,0.2197265630.1,0.64453125,0.043945313,0.043945313,0.1806640630.1005,0.551757813,0.05859375,0.087890625,-0.097656250.101,0.615234375,0.05859375,0.112304688,-0.4003906250.1015,0.234375,0.01953125,0.083007813,-0.1513671880.102,0.01953125,0.063476563,0.048828125,0.1904296880.1025,-0.004882813,0.048828125,0.043945313,0.3759765630.103,-0.029296875,0.073242188,0.0390625,0.3222656250.1035,-0.122070313,0.05859375,0,0.1904296880.104,-0.375976563,0.048828125,0.029296875,0.2636718750.1045,-0.439453125,0.034179688,0.146484375,0.0781250.105,-0.493164063,0.0390625,0.131835938,-0.2246093750.1055,-0.419921875,0.073242188,0.126953125,-0.449218750.106,-0.09765625,0.043945313,0.087890625,-0.4638671880.1065,0,0.068359375,0.122070313,-0.5566406250.107,0.102539063,0.083007813,0.1953125,-0.6201171880.1075,-0.014648438,0.053710938,0.1171875,-0.3906250.108,-0.063476563,0.063476563,0.0390625,-0.1220703130.1085,-0.029296875,0.068359375,0.009765625,0.2001953130.109,0.083007813,0.063476563,0.073242188,0.5224609380.1095,0.244140625,0.092773438,0.078125,0.5566406250.11,0.297851563,0.083007813,0.043945313,0.4345703130.1105,0.283203125,0.141601563,0.053710938,0.2685546880.111,0.229492188,0.078125,0.083007813,0.11718750.1115,0.126953125,0.078125,0.068359375,0.0146484380.112,-0.112304688,0.048828125,0.05859375,-0.0048828130.1125,-0.190429688,0.029296875,0.009765625,-0.019531250.113,-0.200195313,0.063476563,0.014648438,-0.0292968750.1135,-0.09765625,0.029296875,0.0390625,-0.0488281250.114,0.004882813,0.05859375,0.048828125,-0.0341796880.1145,0.053710938,0.048828125,0.043945313,-0.0244140630.115,0.048828125,0.1171875,0.092773438,-0.097656250.1155,0.063476563,0.078125,0.053710938,-0.0537109380.116,0.004882813,0.1171875,0.014648438,-0.058593750.1165,0.073242188,0.131835938,-0.009765625,-0.0537109380.117,0.141601563,0.01953125,-0.043945313,-0.058593750.1175,0.146484375,0.024414063,-0.01953125,-0.1123046880.118,-0.131835938,0.068359375,0.004882813,-0.0927734380.1185,-0.249023438,0.078125,-0.009765625,-0.0488281250.119,-0.053710938,0.063476563,0.083007813,-0.0634765630.1195,0.063476563,0.029296875,0.1171875,-0.0439453130.12,0.126953125,0.063476563,0.048828125,0.0048828130.1205,0.13671875,0.087890625,0.048828125,-0.0244140630.121,0.224609375,0.068359375,0.078125,-0.0927734380.1215,0.2734375,0.014648438,0.029296875,-0.0781250.122,0.2734375,0.063476563,0.102539063,-0.0927734380.1225,0.288085938,0.043945313,0.102539063,-0.0537109380.123,0.229492188,0.053710938,0.05859375,-0.097656250.1235,0.239257813,0.05859375,0.043945313,-0.11718750.124,0.1953125,0.092773438,0.073242188,-0.0927734380.1245,0.239257813,0.073242188,0.0390625,-0.0537109380.125,0.336914063,0.068359375,-0.024414063,-0.019531250.1255,0.458984375,0.048828125,0.009765625,-0.0048828130.126,0.913085938,0.122070313,0.01953125,-0.058593750.1265,1.499023438,0.102539063,0.053710938,-0.0488281250.127,1.313476563,0.073242188,0.073242188,-0.058593750.1275,0.795898438,0.063476563,0.063476563,-0.0634765630.128,0.170898438,0.029296875,0.01953125,-0.0537109380.1285,-0.405273438,0.063476563,-0.01953125,-0.0292968750.129,-1.142578125,0.073242188,-0.004882813,-0.0048828130.1295,-2.133789063,0.102539063,0.0390625,-0.0244140630.13,-1.77734375,0.107421875,0.087890625,-0.1123046880.1305,-0.854492188,0.102539063,0.107421875,-0.11718750.131,-0.981445313,0.029296875,0.068359375,-0.11718750.1315,-0.864257813,0.009765625,0.05859375,-0.1464843750.132,0.078125,0.024414063,0.043945313,-0.0439453130.1325,0.72265625,-0.014648438,0.053710938,0.0341796880.133,0.649414063,0.009765625,0.043945313,0.0146484380.1335,0.390625,0.029296875,0.053710938,-0.0732421880.134,0.361328125,0.05859375,0.126953125,-0.2099609380.1345,0.522460938,0.073242188,0.126953125,-0.2978515630.135,0.610351563,0.029296875,0.092773438,-0.214843750.1355,0.473632813,0.01953125,0.043945313,-0.2001953130.136,0.307617188,0.053710938,0.112304688,-0.253906250.1365,0.444335938,0.1171875,0.048828125,-0.1220703130.137,0.78125,0.0390625,0.01953125,-0.0048828130.1375,0.849609375,0.05859375,0.063476563,0.0048828130.138,1.079101563,0.092773438,0.083007813,0.0537109380.1385,0.595703125,0.063476563,0.09765625,0.0634765630.139,0.087890625,0.01953125,0.09765625,-0.0097656250.1395,0.3125,0.073242188,0.073242188,-0.0634765630.14,0.625,0.068359375,0.05859375,-0.0341796880.1405,0.434570313,0.068359375,0.048828125,-0.0244140630.141,-0.043945313,0.107421875,0.092773438,-0.058593750.1415,-0.122070313,0.102539063,0.05859375,-0.0439453130.142,0.034179688,0.083007813,0.053710938,-0.019531250.1425,-0.063476563,0.029296875,0.141601563,-0.0781250.143,-0.356445313,0.078125,0.053710938,-0.0781250.1435,-0.517578125,0.05859375,0.09765625,-0.0537109380.144,-0.776367188,0.05859375,0.063476563,-0.0537109380.1445,-0.776367188,0.048828125,0.0390625,-0.0537109380.145,-0.52734375,0.053710938,0.048828125,-0.058593750.1455,-0.380859375,0.029296875,0.01953125,-0.0537109380.146,-0.063476563,0.01953125,0.078125,-0.0537109380.1465,-0.209960938,0.01953125,0.112304688,-0.058593750.147,-0.776367188,0.0390625,0.107421875,-0.058593750.1475,0.33203125,0.05859375,0.107421875,-0.1513671880.148,1.616210938,0.01953125,0.083007813,-0.175781250.1485,1.5234375,0.078125,0.068359375,-0.1220703130.149,0.903320313,0.126953125,0.0390625,0.0439453130.1495,0.512695313,0.087890625,0.053710938,0.019531250.15,0.415039063,0.078125,0,-0.2392578130.1505,0.034179688,0.0390625,-0.048828125,-0.3857421880.151,-0.634765625,-0.01953125,-0.068359375,-0.3906250.1515,-0.717773438,0.01953125,-0.048828125,-0.2246093750.152,-0.366210938,0.053710938,0.0390625,-0.0146484380.1525,-0.302734375,0.087890625,0.107421875,0.2636718750.153,-0.366210938,0.112304688,0.13671875,0.3417968750.1535,-0.3125,0.063476563,0.161132813,0.3613281250.154,-0.3125,0.048828125,0.078125,0.3271484380.1545,-0.395507813,0.0390625,0.068359375,0.2197265630.155,-0.444335938,0.004882813,0.034179688,-0.0439453130.1555,-0.405273438,-0.009765625,-0.014648438,-0.1660156250.156,-0.239257813,0.087890625,0.068359375,-0.1708984380.1565,0.092773438,0.102539063,0.078125,-0.1611328130.157,0.434570313,0.083007813,0.078125,-0.1074218750.1575,0.356445313,0.122070313,0.112304688,-0.0732421880.158,0.25390625,0.078125,0.068359375,-0.0439453130.1585,0.170898438,0.078125,0.009765625,0.0048828130.159,0.063476563,0.0390625,0.043945313,-0.0341796880.1595,0.004882813,0.068359375,0.0390625,-0.0292968750.16,-0.063476563,0.048828125,0.034179688,-0.03906250.1605,-0.244140625,0.043945313,0.073242188,-0.0634765630.161,-0.581054688,0.073242188,0.043945313,-0.058593750.1615,-0.87890625,0.083007813,0.05859375,-0.0439453130.162,-0.600585938,0.078125,0.09765625,-0.0244140630.1625,-0.327148438,0.112304688,0.1171875,-0.058593750.163,-0.0390625,0.0390625,0.024414063,-0.0439453130.1635,0.122070313,0.01953125,-0.029296875,-0.0244140630.164,0.185546875,0.063476563,-0.014648438,-0.0488281250.1645,0.268554688,0.043945313,0.01953125,-0.0537109380.165,0.307617188,0.09765625,0.014648438,-0.058593750.1655,0.3125,0.09765625,0.073242188,-0.058593750.166,0.278320313,0.078125,0.092773438,-0.03906250.1665,0.009765625,0.1171875,0.107421875,0.0439453130.167,-0.087890625,0.13671875,0.078125,0.0878906250.1675,-0.13671875,0.083007813,0.112304688,-0.0048828130.168,-0.014648438,0.053710938,0.087890625,-0.1464843750.1685,0.141601563,0.029296875,0.034179688,-0.1318359380.169,0.219726563,0.05859375,-0.014648438,-0.1416015630.1695,0.068359375,0.043945313,0.034179688,-0.0292968750.17,-0.37109375,0.083007813,0.073242188,-0.1220703130.1705,-0.620117188,0.0390625,0.073242188,-0.2343750.171,-0.131835938,0.107421875,0.0390625,-0.1904296880.1715,0.610351563,0.087890625,0.01953125,-0.0634765630.172,0.654296875,0.05859375,0.078125,0.1025390630.1725,0.483398438,0.09765625,0.073242188,0.3759765630.173,0.502929688,0.09765625,0.034179688,0.4638671880.1735,0.434570313,0.078125,0.009765625,0.3662109380.174,0.590820313,0.087890625,0.024414063,0.2294921880.1745,1.040039063,0.043945313,0.014648438,0.156250.175,0.415039063,0.029296875,0.048828125,0.0830078130.1755,-0.99609375,0.063476563,0.034179688,0.058593750.176,-0.874023438,0.014648438,0.009765625,0.0488281250.1765,0.693359375,0.068359375,0.048828125,0.0146484380.177,0.893554688,0.087890625,0.048828125,0.0634765630.1775,0.52734375,0.073242188,-0.004882813,0.058593750.178,0.200195313,0.05859375,-0.01953125,0.0537109380.1785,0.009765625,0.01953125,0.0390625,0.058593750.179,0.043945313,0.063476563,0.0390625,0.058593750.1795,-0.078125,0.043945313,0.01953125,0.0878906250.18,-0.107421875,0.078125,0.05859375,0.1220703130.1805,0.029296875,0.043945313,0.009765625,0.0927734380.181,-0.004882813,0.053710938,0.024414063,0.0292968750.1815,0.09765625,0,0.009765625,0.0830078130.182,0.219726563,0.048828125,-0.034179688,0.1220703130.1825,0.278320313,0.092773438,-0.009765625,0.1025390630.183,0.322265625,0.092773438,0.048828125,0.097656250.1835,0.297851563,-0.024414063,0.073242188,0.0537109380.184,0.29296875,0.029296875,0.083007813,0.058593750.1845,0.327148438,0.048828125,0.068359375,0.0488281250.185,0.341796875,0.0390625,0.073242188,-0.0097656250.1855,0.209960938,0.01953125,0.073242188,0.0048828130.186,0.112304688,0.063476563,-0.014648438,0.0878906250.1865,0.043945313,0.107421875,0.034179688,0.0732421880.187,-0.341796875,0.043945313,0.087890625,0.136718750.1875,-0.99609375,0.073242188,0.073242188,0.2197265630.188,-1.34765625,0.073242188,0.078125,0.1855468750.1885,-0.859375,0.083007813,0.083007813,0.1123046880.189,-0.395507813,0.073242188,0.09765625,-0.0048828130.1895,-0.380859375,0.05859375,0.13671875,-0.0341796880.19,-0.258789063,0.126953125,0.087890625,-0.0048828130.1905,0.283203125,0.068359375,0.087890625,0.0634765630.191,0.654296875,0.087890625,0.13671875,0.058593750.1915,0.126953125,0.102539063,0.063476563,0.0683593750.192,0.205078125,0.131835938,0.063476563,0.097656250.1925,1.069335938,0.107421875,0.083007813,0.058593750.193,0.87890625,0.092773438,0.078125,0.1074218750.1935,-0.229492188,0.073242188,0.043945313,0.1416015630.194,0.283203125,0.043945313,0.092773438,0.0292968750.1945,1.142578125,0.05859375,0.004882813,0.03906250.195,1.586914063,0.053710938,0,0.03906250.1955,1.889648438,0.083007813,0.09765625,0.1220703130.196,1.518554688,0.01953125,0.112304688,0.0732421880.1965,0.3515625,0.048828125,0.09765625,0.058593750.197,-0.493164063,0.087890625,0.083007813,0.058593750.1975,-0.942382813,0.043945313,0.014648438,0.0048828130.198,-1.518554688,0.073242188,0.073242188,-0.058593750.1985,-1.381835938,0.083007813,0.063476563,0.0634765630.199,-0.815429688,0.078125,0.0390625,0.0732421880.1995,-0.561523438,0.083007813,0.043945313,0.019531250.2,-0.48828125,0.083007813,0.01953125,0.0732421880.2005,-0.44921875,0.078125,0.068359375,0.058593750.201,-0.419921875,0.107421875,0.09765625,0.0537109380.2015,-0.224609375,0.05859375,0.09765625,0.058593750.202,-0.161132813,0.092773438,0.014648438,0.0488281250.2025,-0.09765625,0.112304688,0.0390625,-0.0097656250.203,-0.048828125,0.073242188,0.048828125,-0.0341796880.2035,-0.092773438,0.087890625,0.073242188,-0.0244140630.204,-0.024414063,0.13671875,0.112304688,-0.0341796880.2045,0.029296875,0.13671875,0.107421875,-0.0292968750.205,0.014648438,0.09765625,0.043945313,-0.0048828130.2055,-0.048828125,0.1171875,0.05859375,00.206,-0.034179688,0.083007813,0.083007813,0.0488281250.2065,0.048828125,0.107421875,0.043945313,0.1074218750.207,0.078125,0.073242188,0.01953125,0.1513671880.2075,0.112304688,0.05859375,0.048828125,0.2050781250.208,0.122070313,0.063476563,0.0390625,0.1074218750.2085,0.083007813,0.078125,0.073242188,0.0292968750.209,0.01953125,0.13671875,0.073242188,0.0439453130.2095,0.1171875,0.043945313,0.107421875,-0.0048828130.21,0.102539063,0.068359375,0.102539063,0.0048828130.2105,0.024414063,0.01953125,0.05859375,0.0683593750.211,0.05859375,0.05859375,0.0390625,0.097656250.2115,-0.009765625,0.078125,0.048828125,0.0244140630.212,-0.512695313,0.0390625,0.014648438,0.0439453130.2125,-0.8203125,0.083007813,0.05859375,0.058593750.213,-0.288085938,0.087890625,0.014648438,0.0439453130.2135,0.415039063,0.068359375,-0.053710938,-0.0634765630.214,0.44921875,0.0390625,-0.09765625,-0.2490234380.2145,0.341796875,0.073242188,-0.004882813,-0.1806640630.215,0.458984375,0.05859375,0.078125,-0.0781250.2155,0.4296875,0.1171875,0.043945313,00.216,0.395507813,0.048828125,0.014648438,0.19531250.2165,0.224609375,0.05859375,0.034179688,0.2880859380.217,0.185546875,-0.009765625,0.09765625,0.2685546880.2175,0.180664063,0.063476563,0.13671875,0.2294921880.218,0.161132813,0.083007813,0.053710938,0.1513671880.2185,0.083007813,0.083007813,0.083007813,0.0048828130.219,-0.249023438,0.083007813,0.13671875,-0.0097656250.2195,-0.375976563,0.068359375,0.092773438,-0.0341796880.22,0.092773438,0.053710938,0.078125,00.2205,0.258789063,0.122070313,0.112304688,-0.019531250.221,-0.131835938,0.078125,0.078125,0.1074218750.2215,-0.13671875,0.122070313,0.078125,0.1464843750.222,0.205078125,0.083007813,0.029296875,0.2490234380.2225,0.307617188,0.083007813,0.024414063,0.2294921880.223,0.25390625,0.083007813,0.083007813,0.1708984380.2235,0.068359375,0.029296875,0.13671875,0.097656250.224,-1.000976563,0.034179688,0.185546875,0.0146484380.2245,-1.279296875,0.083007813,0.083007813,0.1074218750.225,0.375976563,0.107421875,0.092773438,0.0439453130.2255,1.23046875,0.107421875,0.078125,-0.0048828130.226,0.76171875,0.107421875,0.053710938,-0.0341796880.2265,0.625,0.068359375,0.078125,-0.019531250.227,0.99609375,0.151367188,0.078125,0.0341796880.2275,1.293945313,0.126953125,0.131835938,0.1220703130.228,0.791015625,0.092773438,0.141601563,0.1416015630.2285,0.009765625,0.13671875,0.034179688,0.1220703130.229,-0.4296875,0.13671875,0.073242188,0.0537109380.2295,-0.3515625,0.083007813,0.043945313,0.0244140630.23,-0.244140625,0.029296875,0.048828125,0.0634765630.2305,0.463867188,0.068359375,0.068359375,0.1611328130.231,1.372070313,0.122070313,0.053710938,0.2685546880.2315,1.127929688,0.1171875,0.180664063,0.2246093750.232,-0.034179688,0.141601563,0.078125,0.2441406250.2325,-0.688476563,0.141601563,0.034179688,0.2441406250.233,-0.122070313,0.170898438,0.078125,0.058593750.2335,0.366210938,0.126953125,0.073242188,-0.0927734380.234,0.161132813,0.087890625,0.043945313,-0.1123046880.2345,0.078125,0.083007813,0.068359375,-0.0488281250.235,0.083007813,0.107421875,0.078125,-0.0537109380.2355,-0.146484375,0.102539063,0.078125,-0.03906250.236,-0.463867188,0.1171875,0.083007813,0.0048828130.2365,-0.405273438,0.083007813,0.068359375,0.019531250.237,-0.2734375,0.073242188,0.078125,0.0830078130.2375,0.024414063,0.087890625,0.083007813,0.0048828130.238,0.44921875,0.05859375,0.0390625,0.03906250.2385,0.341796875,-0.009765625,0.05859375,0.0537109380.239,0.073242188,0.063476563,0.087890625,-0.019531250.2395,0.131835938,0.1171875,0.053710938,0.0439453130.24,0.043945313,0.131835938,0.048828125,0.0244140630.2405,-0.13671875,0.083007813,0.083007813,0.0683593750.241,-0.1171875,0.078125,0.073242188,0.0048828130.2415,0.029296875,0.078125,0.083007813,-0.0048828130.242,-0.190429688,0.048828125,0.102539063,00.2425,-1.264648438,0.073242188,0.043945313,0.0097656250.243,-1.69921875,0.083007813,0.034179688,0.0488281250.2435,0.01953125,0.009765625,0.05859375,0.0244140630.244,1.528320313,0.01953125,0.009765625,0.0244140630.2445,1.479492188,0.068359375,-0.014648438,-0.0048828130.245,0.9375,0.01953125,0.004882813,0.0048828130.2455,0.385742188,0.087890625,0.063476563,-0.0048828130.246,-0.01953125,0.102539063,0.107421875,0.0292968750.2465,-0.141601563,0.073242188,0.024414063,0.0244140630.247,-0.263671875,0.05859375,0.05859375,00.2475,-0.419921875,0.053710938,0.043945313,0.058593750.248,-0.625,0.053710938,0.048828125,0.058593750.2485,-0.6640625,0.05859375,0.05859375,-0.0146484380.249,-0.493164063,0.043945313,0.078125,0.03906250.2495,-0.336914063,0.078125,0.087890625,-0.0146484380.25,-0.087890625,0.083007813,0.102539063,-0.03906250.2505,0.078125,0.083007813,0.068359375,-0.0292968750.251,0.087890625,0.073242188,0.073242188,-0.0732421880.2515,-0.092773438,0.043945313,0.092773438,-0.136718750.252,-0.053710938,0.029296875,0.078125,-0.175781250.2525,0.595703125,0.078125,0.092773438,-0.2099609380.253,1.904296875,0.083007813,0.083007813,-0.1611328130.2535,2.309570313,0.043945313,0.004882813,0.019531250.254,1.352539063,0.01953125,0.009765625,0.1025390630.2545,0.4296875,0.083007813,-0.01953125,0.2099609380.255,0.17578125,0.043945313,-0.034179688,0.19531250.2555,-0.073242188,-0.01953125,0.034179688,0.1611328130.256,-0.600585938,0.034179688,0.083007813,0.0146484380.2565,-0.815429688,0.01953125,0.13671875,0.0683593750.257,-0.512695313,0.0390625,0.09765625,00.2575,-0.493164063,0.087890625,0.09765625,-0.0048828130.258,-0.590820313,0.029296875,0.09765625,-0.0146484380.2585,-0.483398438,0.004882813,0.01953125,-0.0244140630.259,-0.366210938,-0.029296875,0.0390625,0.0048828130.2595,-0.185546875,-0.0390625,0.073242188,0.0048828130.26,-0.107421875,-0.024414063,0.073242188,00.2605,-0.068359375,0.083007813,0.087890625,0.0341796880.261,0.224609375,0.053710938,0.1171875,0.03906250.2615,0.688476563,0.048828125,0.09765625,0.0878906250.262,0.668945313,0.087890625,0.073242188,0.058593750.2625,0.161132813,-0.004882813,0.0390625,0.0634765630.263,0.004882813,0.05859375,0.0390625,0.058593750.2635,0,0.029296875,0.034179688,0.0781250.264,-0.029296875,0.053710938,0.048828125,0.097656250.2645,-0.014648438,0,0.05859375,0.058593750.265,-0.141601563,0.063476563,0.0390625,0.1123046880.2655,-0.234375,0.048828125,0.053710938,0.1025390630.266,-0.795898438,0.087890625,0.087890625,0.0781250.2665,-1.870117188,0.078125,0.053710938,0.1269531250.267,-1.372070313,0.073242188,0.078125,0.1123046880.2675,0.15625,0.014648438,0.014648438,0.11718750.268,0.380859375,0.004882813,0.01953125,0.0927734380.2685,0.249023438,0.014648438,0.05859375,0.058593750.269,0.244140625,-0.009765625,0.09765625,0.0830078130.2695,0.37109375,0.034179688,0.09765625,0.019531250.27,0.869140625,0.063476563,0.009765625,0.0830078130.2705,0.8984375,0.087890625,-0.014648438,0.0830078130.271,-0.014648438,0.073242188,0.048828125,0.0537109380.2715,-0.170898438,0.048828125,0.063476563,0.0878906250.272,0.600585938,0.092773438,0.043945313,0.136718750.2725,1.342773438,0.0390625,0.083007813,0.0097656250.273,1.479492188,0.014648438,0.102539063,00.2735,0.786132813,0.05859375,0.024414063,0.0488281250.274,-0.107421875,0.004882813,0.068359375,-0.0878906250.2745,-1.098632813,0.043945313,0.004882813,00.275,-1.23046875,0.048828125,0.048828125,0.019531250.2755,-0.581054688,0.073242188,0.078125,0.03906250.276,-0.180664063,0.083007813,0.009765625,0.1611328130.2765,-0.004882813,0.078125,0.1171875,0.058593750.277,0.307617188,0.092773438,0,0.136718750.2775,0.854492188,0.112304688,0.014648438,0.11718750.278,1.577148438,0.034179688,0.043945313,0.1025390630.2785,2.016601563,-0.024414063,0.0390625,0.058593750.279,1.665039063,0.034179688,-0.014648438,0.0927734380.2795,0.5859375,0.05859375,0.073242188,0.0634765630.28,-0.244140625,0.053710938,0.131835938,-0.0439453130.2805,-0.46875,0.087890625,0.078125,-0.1220703130.281,-0.444335938,0.053710938,0.043945313,-0.0927734380.2815,-0.56640625,0.0390625,0.043945313,-0.0146484380.282,-0.6640625,0.087890625,0.083007813,0.058593750.2825,-0.600585938,0.063476563,0.073242188,0.0927734380.283,-0.302734375,0.034179688,0.063476563,0.156250.2835,0.166015625,0.05859375,0.029296875,0.1708984380.284,0.229492188,-0.009765625,0.05859375,0.1806640630.2845,-0.122070313,0.063476563,0.107421875,0.175781250.285,-0.244140625,0.1171875,0.0390625,0.253906250.2855,-0.483398438,0.0390625,0.102539063,0.2294921880.286,-0.336914063,0.014648438,0.053710938,0.0878906250.2865,-0.131835938,0.009765625,0.01953125,0.0048828130.287,-0.146484375,0.078125,0.014648438,-0.0683593750.2875,-0.09765625,0.053710938,0.004882813,-0.0927734380.288,-0.05859375,0.063476563,0.009765625,-0.019531250.2885,0.078125,0.073242188,0.048828125,-0.0244140630.289,0.166015625,0.053710938,0.01953125,0.0439453130.2895,0.17578125,0.092773438,0.073242188,0.03906250.29,0.200195313,0.048828125,0.05859375,-0.0292968750.2905,0.087890625,0.122070313,-0.009765625,0.0927734380.291,0.122070313,0.043945313,-0.004882813,0.0830078130.2915,0.092773438,0.078125,-0.034179688,0.0537109380.292,0.063476563,0.1171875,0.004882813,0.0781250.2925,0.029296875,0.087890625,0.087890625,0.0683593750.293,0.083007813,-0.029296875,0.107421875,-0.03906250.2935,0.048828125,-0.004882813,0.087890625,0.0488281250.294,-0.05859375,0.063476563,0.087890625,0.0292968750.2945,0.029296875,0.1171875,0.073242188,-0.0146484380.295,0.078125,0.048828125,0.048828125,0.03906250.2955,0.063476563,0.078125,0.063476563,0.0292968750.296,-0.078125,0.048828125,0.053710938,0.0048828130.2965,-1.2109375,0.063476563,0.083007813,0.0292968750.297,-2.309570313,0.092773438,-0.034179688,0.0927734380.2975,-0.747070313,0.131835938,0.053710938,0.0146484380.298,0.756835938,0.102539063,0.068359375,0.019531250.2985,0.80078125,0.043945313,0.107421875,0.058593750.299,0.864257813,0.1171875,-0.014648438,0.0488281250.2995,0.8984375,0.083007813,-0.004882813,0.0683593750.3,0.737304688,0.048828125,-0.004882813,0.097656250.3005,0.5859375,0.073242188,0.029296875,0.0488281250.301,0.390625,0.126953125,0.024414063,0.0292968750.3015,0.375976563,0.073242188,0.083007813,00.302,0.234375,0.083007813,0.05859375,0.058593750.3025,-0.009765625,0.0390625,0.048828125,0.058593750.303,-0.083007813,0.004882813,0.1171875,0.0146484380.3035,-0.17578125,-0.009765625,0.083007813,-0.0048828130.304,0.102539063,0.087890625,0.034179688,0.0292968750.3045,0.2734375,0.09765625,0.053710938,0.0537109380.305,0.288085938,0.063476563,0.05859375,0.0830078130.3055,0.625,0.05859375,0.078125,0.0830078130.306,1.440429688,0.13671875,0.053710938,0.0341796880.3065,1.7578125,0.102539063,0.053710938,-0.0048828130.307,0.805664063,0.034179688,0.078125,-0.0488281250.3075,-0.068359375,0.043945313,0.029296875,-0.0341796880.308,0.25390625,0.087890625,0.0390625,0.058593750.3085,1.0546875,0.068359375,0.09765625,0.0244140630.309,0.502929688,0.0390625,0.09765625,0.058593750.3095,-0.727539063,0.102539063,0.087890625,0.0927734380.31,-1.064453125,0.13671875,0.112304688,0.0830078130.3105,-1.108398438,0.092773438,0.029296875,0.0537109380.311,-1.098632813,0.05859375,0,0.0244140630.3115,-0.727539063,-0.0390625,0.05859375,-0.03906250.312,-0.512695313,-0.004882813,-0.014648438,-0.019531250.3125,-0.44921875,0.073242188,0.053710938,-0.0048828130.313,-0.341796875,0.087890625,0.078125,0.0634765630.3135,-0.33203125,0.092773438,0.126953125,0.0097656250.314,-0.44921875,0.048828125,0.151367188,0.0048828130.3145,-0.166015625,0.1171875,0.112304688,00.315,0.502929688,0.083007813,0.048828125,0.0292968750.3155,0.537109375,0.068359375,0.068359375,0.0292968750.316,0.46875,0.078125,0,0.019531250.3165,0.571289063,-0.053710938,0.063476563,-0.03906250.317,0.913085938,0.004882813,0.068359375,-0.0488281250.3175,1.372070313,0.029296875,0.048828125,-0.0341796880.318,0.903320313,0.029296875,0.0390625,0.1025390630.3185,0.13671875,0.131835938,0.107421875,0.03906250.319,-0.09765625,0.1171875,0.043945313,0.0439453130.3195,-0.146484375,0.073242188,0.102539063,0.058593750.32,-0.190429688,0.05859375,0.083007813,0.0781250.3205,-0.336914063,0.014648438,0.073242188,0.0097656250.321,-0.517578125,0.05859375,0.073242188,00.3215,-1.474609375,-0.034179688,0.01953125,0.0439453130.322,-1.943359375,-0.004882813,0.053710938,0.058593750.3225,-0.522460938,-0.004882813,0.087890625,0.0634765630.323,0.473632813,0.048828125,0,0.058593750.3235,0.46875,0.087890625,0.1171875,0.0048828130.324,0.375976563,0.083007813,0.068359375,-0.0048828130.3245,0.424804688,0.073242188,0.063476563,0.019531250.325,0.361328125,0.0390625,0.078125,0.0830078130.3255,0.307617188,0.078125,0.0390625,0.0781250.326,0.571289063,0.053710938,0.053710938,-0.0097656250.3265,1.166992188,0.024414063,0.092773438,-0.0048828130.327,1.147460938,0.029296875,0.004882813,0.0732421880.3275,0.356445313,0.05859375,0.014648438,0.019531250.328,-0.009765625,0.048828125,0.0390625,0.0634765630.3285,-0.092773438,0.053710938,0.05859375,0.0732421880.329,-0.122070313,0.05859375,0.0390625,0.0927734380.3295,-0.180664063,0.078125,0.048828125,0.0097656250.33,-0.229492188,-0.004882813,0.063476563,-0.0048828130.3305,-0.21484375,0,0.053710938,-0.0439453130.331,-0.161132813,0.078125,0.048828125,0.0048828130.3315,-0.053710938,0.078125,0.043945313,0.0830078130.332,-0.043945313,0.053710938,0.053710938,0.1123046880.3325,-0.087890625,0.063476563,0.029296875,0.058593750.333,-0.068359375,0.087890625,0.048828125,0.0683593750.3335,-0.053710938,0.09765625,0.107421875,0.0292968750.334,0.009765625,0.029296875,0.024414063,0.0341796880.3345,-0.073242188,0.053710938,-0.043945313,0.019531250.335,-0.09765625,0.043945313,-0.004882813,0.0341796880.3355,0.068359375,0.0390625,0.0390625,0.03906250.336,0.634765625,0.05859375,0.092773438,0.0292968750.3365,0.87890625,0.014648438,0.029296875,0.0292968750.337,0.278320313,0,0.073242188,0.0292968750.3375,0.004882813,0.009765625,0.087890625,0.0341796880.338,0.395507813,0.029296875,0.029296875,0.0341796880.3385,0.512695313,0.029296875,0.092773438,-0.019531250.339,0.361328125,0.073242188,0.0390625,-0.03906250.3395,-0.048828125,0.073242188,-0.014648438,0.0488281250.34,-0.346679688,0.01953125,0.014648438,0.03906250.3405,-0.317382813,0.01953125,-0.004882813,0.0488281250.341,-0.126953125,0.01953125,0.092773438,-0.0048828130.3415,0.141601563,-0.01953125,0.073242188,0.0439453130.342,0.068359375,0.0390625,0.112304688,0.0146484380.3425,-0.454101563,0.048828125,0.05859375,0.0488281250.343,-0.639648438,0.014648438,0.014648438,0.0634765630.3435,-0.434570313,0.004882813,0.092773438,-0.0048828130.344,-0.239257813,-0.01953125,0.0390625,0.0732421880.3445,-0.170898438,0.05859375,0.009765625,0.0146484380.345,-0.029296875,0.048828125,0.01953125,-0.0097656250.3455,-0.122070313,0.053710938,0.048828125,0.0048828130.346,-0.043945313,-0.01953125,0.009765625,0.03906250.3465,-0.014648438,0.024414063,0.112304688,0.0097656250.347,0.029296875,0.01953125,0.102539063,0.0097656250.3475,0.087890625,0.004882813,0.13671875,-0.0634765630.348,0.029296875,-0.014648438,0.112304688,-0.0341796880.3485,0.029296875,0.063476563,0.0390625,0.0732421880.349,0,0.078125,0.048828125,-0.0048828130.3495,0.009765625,0.068359375,0.063476563,00.35,-0.004882813,0.0390625,0.102539063,0.058593750.3505,-0.01953125,0.068359375,-0.029296875,0.0439453130.351,0.0390625,-0.004882813,0.029296875,0.0146484380.3515,0.043945313,-0.014648438,0.014648438,0.0732421880.352,0.09765625,-0.048828125,0.014648438,0.0439453130.3525,0.05859375,0.063476563,0.024414063,0.0146484380.353,0.09765625,0.009765625,0.014648438,0.0683593750.3535,0.073242188,0.063476563,0.063476563,0.0878906250.354,0.043945313,0.068359375,0.078125,0.0781250.3545,0.034179688,-0.01953125,0.053710938,0.0439453130.355,0.014648438,0.009765625,0.112304688,00.3555,-0.1953125,0.09765625,0.073242188,00.356,-0.620117188,-0.009765625,0.034179688,0.0048828130.3565,-0.771484375,0.053710938,0.048828125,0.0292968750.357,-0.063476563,0.014648438,0.01953125,0.097656250.3575,0.336914063,-0.004882813,0.024414063,0.0830078130.358,0.263671875,0.034179688,0.083007813,0.0292968750.3585,0.234375,0.01953125,0.107421875,0.0097656250.359,0.224609375,0.078125,0.063476563,0.0439453130.3595,0.283203125,-0.01953125,0.107421875,-0.0048828130.36,0.146484375,0.029296875,0.063476563,0.058593750.3605,0.151367188,-0.014648438,0.0390625,0.0878906250.361,0.122070313,0.004882813,0.078125,-0.0048828130.3615,0.229492188,0.01953125,0.004882813,0.0048828130.362,0.532226563,-0.004882813,-0.004882813,-0.0048828130.3625,0.756835938,0.068359375,-0.014648438,0.0146484380.363,0.581054688,0.092773438,0.043945313,0.0634765630.3635,0.244140625,0.05859375,0.078125,0.058593750.364,0.561523438,0.078125,0.05859375,0.058593750.3645,0.961914063,0.087890625,-0.009765625,0.0634765630.365,0.395507813,0.0390625,0.029296875,0.0439453130.3655,-0.258789063,0.009765625,-0.004882813,-0.0048828130.366,-0.60546875,-0.014648438,0.05859375,0.0048828130.3665,-0.78125,0.05859375,0.024414063,0.0292968750.367,-0.17578125,0.048828125,0.043945313,0.019531250.3675,0.205078125,0.009765625,0.107421875,0.0878906250.368,-0.317382813,0.043945313,0.122070313,0.0341796880.3685,-0.68359375,0.112304688,0.029296875,0.0683593750.369,-0.395507813,0.092773438,0.0390625,-0.0146484380.3695,-0.073242188,0.014648438,0.048828125,-0.0146484380.37,0.009765625,0.009765625,0.014648438,0.0292968750.3705,-0.146484375,0.083007813,0.014648438,00.371,-0.126953125,0.014648438,0.043945313,0.0146484380.3715,0.01953125,0.102539063,0.078125,-0.0292968750.372,0.107421875,0.078125,0.029296875,0.0341796880.3725,0.336914063,0.029296875,0.087890625,-0.0146484380.373,0.649414063,0.068359375,0.112304688,0.1220703130.3735,0.610351563,0.087890625,0.034179688,0.058593750.374,0.131835938,0.034179688,0.014648438,0.0292968750.3745,-0.1171875,0.107421875,0.034179688,0.0683593750.375,-0.083007813,0.05859375,0.048828125,0.0341796880.3755,-0.092773438,0.053710938,0.01953125,0.019531250.376,-0.166015625,0.05859375,0.087890625,0.0439453130.3765,-0.249023438,0.13671875,0.0390625,0.097656250.377,-0.219726563,0.102539063,0.083007813,0.0830078130.3775,-0.068359375,0.063476563,0.068359375,0.0341796880.378,-0.024414063,0.0390625,0.078125,0.0244140630.3785,0.0390625,0.092773438,0.122070313,00.379,-0.009765625,0.073242188,0.029296875,0.0683593750.3795,0.0390625,0.029296875,0.01953125,0.0244140630.38,-0.029296875,0.043945313,0.05859375,0.0292968750.3805,-0.048828125,0.078125,0.09765625,-0.0048828130.381,0.107421875,0.043945313,0.05859375,0.0439453130.3815,0.029296875,0.073242188,0.01953125,0.03906250.382,0.05859375,0.083007813,0.068359375,0.03906250.3825,0.048828125,0.102539063,0.1171875,0.0097656250.383,0.048828125,0.146484375,0.078125,0.0146484380.3835,0.092773438,0.083007813,0.078125,0.0634765630.384,0,0.063476563,0.112304688,0.0146484380.3845,0.102539063,0,0.107421875,0.0097656250.385,0.087890625,0.024414063,0.034179688,0.0488281250.3855,0.068359375,0.053710938,0.092773438,-0.0244140630.386,0.043945313,0.063476563,0.078125,0.019531250.3865,-0.014648438,0.068359375,0.122070313,-0.0097656250.387,0.078125,0.078125,0.13671875,0.0048828130.3875,0.092773438,0.087890625,0.102539063,0.0097656250.388,0.09765625,0.053710938,0.107421875,0.0488281250.3885,0.043945313,0.078125,0.1171875,-0.0537109380.389,0.053710938,0.048828125,0.0390625,0.0048828130.3895,0.1171875,0.063476563,0.083007813,0.019531250.39,0.048828125,0.073242188,0.034179688,0.0634765630.3905,0.063476563,0.01953125,0.009765625,0.058593750.391,0.102539063,0.029296875,0.043945313,0.03906250.3915,0.063476563,0.068359375,0.053710938,0.0439453130.392,0.112304688,0.078125,0.048828125,0.0488281250.3925,0.063476563,0.078125,0.078125,-0.0048828130.393,0.034179688,0.1171875,0.09765625,0.0292968750.3935,0.048828125,0.063476563,0.078125,-0.0244140630.394,0.053710938,0.068359375,0.053710938,-0.0048828130.3945,-0.004882813,0.087890625,0.102539063,-0.019531250.395,0.01953125,0.048828125,-0.024414063,0.019531250.3955,0.043945313,0.107421875,0.029296875,0.019531250.396,-0.009765625,0.078125,0.024414063,-0.0048828130.3965,0.126953125,0.009765625,0.102539063,-0.0244140630.397,0.087890625,0.053710938,0.078125,0.0146484380.3975,0,0.043945313,0.078125,-0.0341796880.398,0.073242188,0.014648438,0.078125,0.0097656250.3985,0.034179688,0.068359375,0.126953125,-0.0048828130.399,0.0390625,0.107421875,0.112304688,0.019531250.3995,0.073242188,0.0390625,0.043945313,0.0537109380.4,0.05859375,0.102539063,0.05859375,-0.0146484380.4005,0.063476563,0.043945313,0.068359375,00.401,0.063476563,0.107421875,0.048828125,0.0439453130.4015,0.029296875,0.092773438,0.087890625,-0.0097656250.402,0.102539063,0.0390625,0.073242188,-0.0244140630.4025,0.102539063,0.053710938,0.053710938,-0.0488281250.403,0.01953125,0.078125,0.014648438,0.058593750.4035,-0.034179688,0.13671875,0.048828125,0.019531250.404,0.024414063,0.083007813,0.078125,-0.03906250.4045,0.063476563,0.107421875,0.083007813,-0.019531250.405,0.029296875,0.131835938,0.053710938,0.0341796880.4055,0.048828125,0.063476563,0.043945313,-0.0244140630.406,0.024414063,0.126953125,0.092773438,-0.0244140630.4065,0.01953125,0.141601563,0.112304688,0.0146484380.407,0.009765625,0.083007813,0.078125,-0.0048828130.4075,0.034179688,0.092773438,0.078125,0.0048828130.408,0.05859375,0.05859375,0.0390625,0.0341796880.4085,0.048828125,0.083007813,0.01953125,0.0634765630.409,0.029296875,0.083007813,0.0390625,0.0488281250.4095,0.068359375,0.048828125,0.048828125,00.41,0.014648438,0.1171875,0.05859375,-0.0341796880.4105,-0.014648438,0.107421875,0.083007813,0.0097656250.411,0.053710938,0.131835938,0.073242188,-0.0097656250.4115,0.102539063,0.092773438,0.09765625,0.0146484380.412,0.107421875,0.043945313,0.068359375,-0.0341796880.4125,0.087890625,0.068359375,0.102539063,0.0097656250.413,0.004882813,0.083007813,0.087890625,0.019531250.4135,0.043945313,0.131835938,0.063476563,-0.0097656250.414,-0.01953125,-0.126953125,0.043945313,0.0341796880.4145,0.009765625,-0.239257813,0.014648438,-0.0097656250.415,0.004882813,-0.13671875,0.048828125,-0.0048828130.4155,0.014648438,0.004882813,0.126953125,-0.058593750.416,0.053710938,0.141601563,0.092773438,0.0146484380.4165,0.053710938,0.15625,0.107421875,0.0683593750.417,0.09765625,0.102539063,0.087890625,0.03906250.4175,0.004882813,0.146484375,0.073242188,0.0048828130.418,0.004882813,0.102539063,0.034179688,0.0292968750.4185,0.112304688,0.014648438,0.004882813,-0.019531250.419,0.053710938,0.122070313,-0.053710938,0.0341796880.4195,0.063476563,0.102539063,0.0390625,0.0634765630.42,0.014648438,0.102539063,0.053710938,0.0292968750.4205,0.004882813,0.092773438,0.073242188,0.03906250.421,0.0390625,0.087890625,0.161132813,0.0146484380.4215,0.0390625,0.053710938,0.092773438,0.0488281250.422,0.092773438,0.087890625,0.09765625,0.0683593750.4225,0.043945313,0.0390625,0.053710938,0.0488281250.423,0.034179688,-0.17578125,0.048828125,0.0048828130.4235,0.029296875,-0.297851563,0.092773438,0.0048828130.424,0.034179688,-0.083007813,0.068359375,00.4245,0.029296875,0.107421875,0.05859375,-0.03906250.425,-0.068359375,0.1953125,0.068359375,-0.019531250.4255,0.029296875,0.224609375,0.034179688,-0.03906250.426,0.029296875,0.21484375,0.05859375,0.0048828130.4265,-0.01953125,0.170898438,0.053710938,0.0097656250.427,0.014648438,0.161132813,0.078125,-0.0048828130.4275,0.004882813,0.2734375,0.05859375,00.428,0.05859375,0.209960938,0.014648438,0.0097656250.4285,0.073242188,0.131835938,0.087890625,-0.03906250.429,0.063476563,0.122070313,0.043945313,-0.0634765630.4295,0.068359375,0.014648438,0.029296875,-0.0781250.43,0.126953125,0.048828125,0.024414063,-0.1220703130.4305,0.122070313,0.092773438,0.0390625,-0.0732421880.431,0.122070313,0.048828125,0.053710938,-0.0292968750.4315,0.09765625,0.05859375,0.107421875,0.0048828130.432,0.1171875,0.048828125,0.078125,0.0244140630.4325,0.180664063,0.009765625,0.073242188,0.0683593750.433,0.180664063,0.004882813,0.078125,0.0439453130.4335,0.102539063,0,0.09765625,0.0048828130.434,0.068359375,0.024414063,0.068359375,00.4345,0.112304688,-0.034179688,0.014648438,00.435,0.087890625,-0.034179688,0.05859375,00.4355,0.068359375,0.024414063,0.053710938,-0.0048828130.436,0.09765625,0.068359375,0.087890625,0.0048828130.4365,0.126953125,0.122070313,0.048828125,-0.0292968750.437,0.122070313,0.1171875,0.083007813,0.019531250.4375,0.087890625,0.078125,0.053710938,0.0488281250.438,0.063476563,0.009765625,0.0390625,-0.0048828130.4385,0.073242188,0.01953125,0.043945313,-0.0732421880.439,0.043945313,0.068359375,0.009765625,-0.1220703130.4395,0.009765625,0.014648438,0.034179688,-0.1123046880.44,0.068359375,0.073242188,0.053710938,-0.0683593750.4405,0.131835938,0.087890625,0.053710938,0.0146484380.441,0.126953125,0.078125,0.087890625,0.0292968750.4415,0.09765625,0.053710938,0.112304688,-0.0439453130.442,0.13671875,0.09765625,0.09765625,00.4425,0.146484375,0.043945313,0.09765625,-0.0048828130.443,0.092773438,0.05859375,0.073242188,-0.0488281250.4435,0.087890625,0.053710938,0.053710938,-0.0292968750.444,0.063476563,0.048828125,0.009765625,0.0634765630.4445,0.048828125,0.087890625,0.063476563,-0.0097656250.445,0.043945313,0.102539063,0.068359375,0.03906250.4455,0.13671875,0.004882813,0.009765625,0.097656250.446,0.166015625,0.0390625,0.053710938,00.4465,0.161132813,0.068359375,0.078125,00.447,0.1171875,0.053710938,0.073242188,0.019531250.4475,0.09765625,0.014648438,0.068359375,-0.019531250.448,0.151367188,-0.014648438,0.0390625,-0.0292968750.4485,0.219726563,0.01953125,0.078125,-0.0341796880.449,0.112304688,0.068359375,0.078125,-0.058593750.4495,0.190429688,0.014648438,0.073242188,0.019531250.45,0.244140625,0.024414063,0.073242188,0.03906250.4505,0.180664063,0.063476563,0.053710938,-0.03906250.451,0.151367188,0.01953125,0.05859375,-0.0488281250.4515,0.190429688,-0.009765625,0.073242188,-0.0439453130.452,0.1953125,0.004882813,0.078125,-0.0244140630.4525,0.131835938,0.01953125,0.043945313,-0.0537109380.453,0.185546875,0.01953125,0.048828125,-0.0537109380.4535,0.17578125,0.05859375,0.05859375,-0.0146484380.454,0.21484375,0.083007813,0.107421875,-0.0488281250.4545,0.190429688,0.078125,0.073242188,-0.0292968750.455,0.166015625,0.087890625,0.078125,00.4555,0.180664063,0.102539063,0.014648438,-0.0439453130.456,0.180664063,0.102539063,0.043945313,-0.058593750.4565,0.122070313,0.068359375,0.048828125,-0.0878906250.457,0.1171875,0.024414063,0.05859375,-0.11718750.4575,0.161132813,0.053710938,0.083007813,-0.1269531250.458,0.180664063,0.087890625,0.073242188,-0.1464843750.4585,0.190429688,0.068359375,0.083007813,-0.058593750.459,0.239257813,0.034179688,0.126953125,-0.0341796880.4595,0.234375,0.004882813,0.180664063,-0.0537109380.46,0.209960938,0,0.126953125,-0.0878906250.4605,0.229492188,0.073242188,0.13671875,-0.1513671880.461,0.21484375,0.029296875,0.087890625,-0.1074218750.4615,0.205078125,0.024414063,0.05859375,-0.1074218750.462,0.205078125,0.063476563,0.0390625,-0.0537109380.4625,0.1953125,0.112304688,0.048828125,-0.0341796880.463,0.278320313,0.043945313,0.05859375,-0.03906250.4635,0.200195313,0.087890625,0.068359375,-0.0146484380.464,0.21484375,0.043945313,0.009765625,0.0097656250.4645,0.180664063,0.063476563,0.01953125,-0.0048828130.465,0.13671875,0.053710938,0.014648438,00.4655,0.185546875,0,0.009765625,00.466,0.17578125,0.053710938,-0.004882813,-0.0097656250.4665,0.131835938,0.014648438,0.029296875,-0.0292968750.467,0.17578125,0.0390625,0.048828125,-0.0341796880.4675,0.180664063,0.05859375,0.102539063,-0.0878906250.468,0.17578125,0.014648438,0.078125,-0.0439453130.4685,0.1953125,-0.024414063,0.063476563,00.469,0.239257813,0.034179688,0.078125,-0.0488281250.4695,0.229492188,0.087890625,0.073242188,-0.0537109380.47,0.2734375,0.107421875,0.092773438,-0.0732421880.4705,0.249023438,0.087890625,0.112304688,-0.097656250.471,0.283203125,0.004882813,0.068359375,-0.0439453130.4715,0.395507813,-0.01953125,0.083007813,-0.0292968750.472,0.297851563,0.063476563,0.122070313,-0.0732421880.4725,0.2734375,0.073242188,0.068359375,-0.019531250.473,0.224609375,0.073242188,0.09765625,-0.0341796880.4735,0.322265625,0.087890625,0.043945313,0.0048828130.474,0.278320313,0.078125,0.009765625,0.0097656250.4745,0.234375,0.029296875,0.043945313,-0.0439453130.475,0.239257813,-0.004882813,0.004882813,-0.0488281250.4755,0.234375,0.05859375,0.034179688,0.0097656250.476,0.244140625,-0.053710938,0.048828125,-0.0439453130.4765,0.239257813,-0.200195313,0.112304688,-0.0146484380.477,0.302734375,-0.180664063,0.087890625,0.0048828130.4775,0.336914063,0.029296875,0.0390625,0.0244140630.478,0.224609375,0.17578125,0.107421875,0.0488281250.4785,0.29296875,0.112304688,0.0390625,0.0146484380.479,0.21484375,0.131835938,0.048828125,-0.0341796880.4795,0.170898438,0.224609375,0.014648438,0.0488281250.48,0.185546875,0.112304688,0.01953125,0.0048828130.4805,0.180664063,-0.166015625,0.01953125,00.481,0.166015625,-0.122070313,0.024414063,0.03906250.4815,0.126953125,0.048828125,0.068359375,-0.0146484380.482,0.131835938,0.141601563,0.1171875,-0.0537109380.4825,0.141601563,0.102539063,0.048828125,-0.0048828130.483,0.092773438,0.078125,0.014648438,-0.0292968750.4835,0.126953125,0.068359375,0.014648438,0.0048828130.484,0.15625,0.01953125,-0.01953125,-0.0537109380.4845,0.185546875,0.029296875,0.048828125,-0.0634765630.485,0.180664063,0.083007813,0.083007813,-0.0292968750.4855,0.205078125,0.15625,0.073242188,-0.03906250.486,0.2734375,0.170898438,0.078125,-0.097656250.4865,0.297851563,0.13671875,0.078125,-0.0048828130.487,0.341796875,0.1953125,0.073242188,00.4875,0.356445313,0.229492188,0.078125,-0.0146484380.488,0.346679688,0.13671875,0.063476563,-0.0732421880.4885,0.307617188,0.146484375,0.004882813,-0.0244140630.489,0.278320313,0.244140625,0.009765625,-0.0634765630.4895,0.234375,0.161132813,-0.0390625,-0.0488281250.49,0.239257813,0.15625,-0.073242188,-0.0244140630.4905,0.239257813,0.380859375,0.053710938,-0.0634765630.491,0.229492188,0.366210938,0.107421875,-0.0488281250.4915,0.258789063,0.17578125,0.05859375,-0.0244140630.492,0.2734375,0.05859375,0.102539063,-0.03906250.4925,0.21484375,0.151367188,0.01953125,0.0146484380.493,0.1953125,0.1171875,0.014648438,-0.0634765630.4935,0.180664063,0.01953125,0.014648438,-0.0537109380.494,0.170898438,-0.01953125,-0.0390625,-0.0537109380.4945,0.17578125,-0.004882813,-0.029296875,-0.0634765630.495,0.141601563,0,0.029296875,-0.0341796880.4955,0.170898438,-0.043945313,0.053710938,-0.0244140630.496,0.15625,-0.078125,0.029296875,-0.019531250.4965,0.112304688,0.009765625,0.043945313,00.497,0.073242188,-0.01953125,0.078125,0.0048828130.4975,0.083007813,-0.029296875,0.034179688,0.0048828130.498,0.078125,0.024414063,0.01953125,-0.0097656250.4985,0,-0.014648438,0.034179688,-0.0488281250.499,0.053710938,-0.034179688,0.078125,-0.0634765630.4995,-0.063476563,0.048828125,0.048828125,-0.0927734380.5,-0.087890625,0.131835938,0.048828125,-0.1416015630.5005,-0.029296875,0.078125,0.034179688,-0.0537109380.501,0.034179688,0.1171875,0.083007813,00.5015,-0.004882813,0.185546875,0.0390625,0.0048828130.502,-0.043945313,0.068359375,0.068359375,-0.0146484380.5025,-0.014648438,0,0.05859375,-0.0732421880.503,-0.043945313,0.1171875,0.009765625,-0.03906250.5035,-0.083007813,0.17578125,0.024414063,-0.1220703130.504,-0.048828125,0.200195313,0.029296875,-0.0634765630.5045,-0.043945313,0.278320313,0.073242188,-0.0927734380.505,0.053710938,0.151367188,0.078125,-0.058593750.5055,0.053710938,0.1171875,0.083007813,-0.0537109380.506,0.034179688,0.166015625,0.073242188,-0.0634765630.5065,0.083007813,0.131835938,0.063476563,-0.1025390630.507,0.107421875,0.141601563,0.043945313,-0.0781250.5075,0.1171875,0.083007813,0.083007813,-0.11718750.508,0.063476563,0.083007813,0.029296875,-0.0732421880.5085,0.13671875,-0.01953125,0.034179688,-0.0683593750.509,0.107421875,-0.190429688,0.078125,-0.1025390630.5095,0.078125,-0.288085938,0.078125,-0.019531250.51,0.107421875,-0.190429688,0.0390625,00.5105,0.092773438,-0.01953125,0.107421875,-0.0537109380.511,0.087890625,0.043945313,0.043945313,-0.058593750.5115,0.034179688,0.0390625,0.009765625,-0.058593750.512,0,-0.024414063,0.034179688,-0.0634765630.5125,0.009765625,-0.09765625,0.05859375,-0.0537109380.513,-0.014648438,-0.151367188,0.0390625,-0.0537109380.5135,0.01953125,-0.029296875,0.048828125,-0.0634765630.514,0.01953125,0.141601563,0.01953125,-0.0634765630.5145,0.034179688,0.161132813,0.053710938,-0.0927734380.515,0.009765625,0.1953125,0.009765625,-0.058593750.5155,0.063476563,0.151367188,0.05859375,-0.0537109380.516,0.087890625,0.244140625,0.078125,-0.0683593750.5165,0.09765625,0.400390625,0.112304688,-0.097656250.517,0.09765625,0.288085938,0.043945313,-0.0292968750.5175,0.078125,0.205078125,0.014648438,00.518,0.107421875,0.327148438,0.107421875,-0.0244140630.5185,0.1171875,0.288085938,0.063476563,-0.0781250.519,0.01953125,0.1171875,0.034179688,-0.0244140630.5195,0.043945313,0,0.083007813,-0.097656250.52,-0.05859375,0.009765625,0.029296875,-0.1025390630.5205,-0.083007813,0.048828125,0.034179688,-0.03906250.521,-0.073242188,0.048828125,0.05859375,-0.1123046880.5215,-0.043945313,-0.024414063,0.009765625,-0.0781250.522,-0.029296875,0.0390625,0.068359375,-0.097656250.5225,-0.024414063,0.087890625,0.083007813,-0.0732421880.523,-0.014648438,0.078125,0.068359375,-0.0439453130.5235,0.01953125,0.122070313,0.043945313,-0.0634765630.524,0.029296875,0.126953125,0.01953125,-0.058593750.5245,0.0390625,0.048828125,0.004882813,-0.0488281250.525,0.014648438,-0.073242188,-0.014648438,-0.0781250.5255,0.063476563,-0.229492188,0.034179688,-0.1513671880.526,0.043945313,-0.161132813,0.01953125,-0.1318359380.5265,0.014648438,0.068359375,0.078125,-0.1074218750.527,0.048828125,0.190429688,0.083007813,-0.0927734380.5275,0.083007813,0.190429688,0.073242188,-0.0488281250.528,0.092773438,0.180664063,0.068359375,-0.0634765630.5285,-0.004882813,0.141601563,0.0390625,-0.0634765630.529,0.009765625,0.13671875,0.048828125,-0.1123046880.5295,0.009765625,0.083007813,0.009765625,-0.0878906250.53,0.004882813,0.029296875,-0.014648438,-0.0634765630.5305,0.009765625,0.053710938,0.009765625,-0.1025390630.531,0.024414063,0.092773438,0.024414063,-0.0781250.5315,0.068359375,0.087890625,0.01953125,-0.0830078130.532,0.122070313,0.1953125,0.102539063,-0.058593750.5325,0.122070313,0.434570313,0.107421875,-0.0830078130.533,0.083007813,0.400390625,0.009765625,-0.0146484380.5335,0.092773438,0.17578125,0.01953125,-0.0878906250.534,0.146484375,0.209960938,0.014648438,-0.0781250.5345,0.05859375,0.200195313,0,-0.0878906250.535,0.078125,0.014648438,-0.014648438,-0.0683593750.5355,0.112304688,0.073242188,0.053710938,-0.0781250.536,0.126953125,0.244140625,0.034179688,-0.0878906250.5365,0.126953125,0.205078125,0.068359375,-0.097656250.537,0.166015625,0.029296875,0.083007813,-0.0488281250.5375,0.205078125,-0.083007813,0.102539063,-0.0244140630.538,0.107421875,0.014648438,0.087890625,-0.0683593750.5385,0.146484375,0.053710938,0.01953125,-0.0146484380.539,0.043945313,0.048828125,0.0390625,-0.0732421880.5395,0.053710938,0.014648438,0.048828125,-0.1220703130.54,0.063476563,0.0390625,0.048828125,-0.1074218750.5405,0.09765625,0.053710938,0.01953125,-0.0781250.541,0.126953125,0.107421875,0.048828125,-0.097656250.5415,0.112304688,0.229492188,0.1171875,-0.0537109380.542,0.122070313,0.1953125,0.122070313,-0.058593750.5425,0.122070313,0.1953125,0.083007813,-0.0537109380.543,0.09765625,0.161132813,0.078125,0.0048828130.5435,0.190429688,0.13671875,0.107421875,-0.0341796880.544,0.073242188,0.224609375,0.09765625,-0.0683593750.5445,0.05859375,0.25390625,0.078125,-0.0830078130.545,0.073242188,0.068359375,0.1171875,-0.0634765630.5455,0.083007813,-0.05859375,0.078125,-0.058593750.546,0.15625,0.009765625,0.078125,-0.0097656250.5465,0.126953125,0.219726563,0.122070313,0.0048828130.547,0.166015625,0.219726563,0.166015625,0.0146484380.5475,0.166015625,0.151367188,0.15625,-0.058593750.548,0.107421875,0.239257813,0.083007813,-0.0244140630.5485,0.063476563,0.361328125,0.092773438,-0.0439453130.549,0.024414063,0.297851563,0.131835938,-0.0683593750.5495,0.014648438,0.3515625,0.131835938,-0.1220703130.55,0.05859375,0.3125,0.09765625,-0.0439453130.5505,0.068359375,0.224609375,0.092773438,0.0146484380.551,0.112304688,0.161132813,0.17578125,-0.019531250.5515,0.122070313,0.17578125,0.131835938,-0.0537109380.552,0.092773438,0.131835938,0.131835938,-0.019531250.5525,0.014648438,0.078125,0.087890625,0.0439453130.553,0.043945313,0.053710938,0.078125,-0.0097656250.5535,0.024414063,0.087890625,0.102539063,-0.03906250.554,0.009765625,0.05859375,0.166015625,-0.0341796880.5545,0.029296875,0.063476563,0.09765625,-0.097656250.555,0.107421875,0.078125,0.112304688,-0.0341796880.5555,0.126953125,0.146484375,0.13671875,0.0341796880.556,0.102539063,0.102539063,0.151367188,-0.0048828130.5565,0.09765625,0.141601563,0.083007813,-0.0048828130.557,0.126953125,0.13671875,0.1171875,-0.03906250.5575,0.083007813,0.13671875,0.09765625,-0.0244140630.558,0.107421875,0.13671875,0.13671875,-0.0634765630.5585,0.083007813,0.166015625,0.087890625,-0.0097656250.559,0.092773438,0.1953125,0.092773438,0.0048828130.5595,0.112304688,0.151367188,0.141601563,-0.0048828130.56,0.126953125,0.15625,0.170898438,0.0341796880.5605,0.073242188,0.1953125,0.190429688,0.0146484380.561,0.0390625,0.219726563,0.185546875,0.0048828130.5615,0.078125,0.200195313,0.126953125,0.0341796880.562,0.083007813,0.151367188,0.126953125,-0.0439453130.5625,0.034179688,0.205078125,0.1171875,-0.0537109380.563,0,0.249023438,0.112304688,0.0146484380.5635,0.0390625,0.307617188,0.09765625,0.0341796880.564,0.131835938,0.3125,0.180664063,-0.0097656250.5645,0.092773438,0.385742188,0.185546875,0.0488281250.565,0.13671875,0.385742188,0.141601563,0.0439453130.5655,0.131835938,0.283203125,0.146484375,-0.0048828130.566,0.01953125,0.126953125,0.09765625,0.03906250.5665,0.073242188,-0.151367188,0.131835938,0.0097656250.567,0.05859375,-0.078125,0.083007813,-0.0439453130.5675,0.014648438,0.107421875,0.102539063,0.0292968750.568,0.01953125,0.263671875,0.131835938,0.0537109380.5685,0.068359375,0.224609375,0.146484375,0.0146484380.569,0.029296875,0.249023438,0.17578125,0.0683593750.5695,0.048828125,0.239257813,0.122070313,0.0927734380.57,0.068359375,0.200195313,0.141601563,0.019531250.5705,0.0390625,0.122070313,0.131835938,0.03906250.571,0.043945313,0.131835938,0.131835938,0.0097656250.5715,0.092773438,0.146484375,0.13671875,0.0146484380.572,0.034179688,0.112304688,0.09765625,0.0732421880.5725,0.087890625,0.170898438,0.078125,0.0878906250.573,0.122070313,0.234375,0.146484375,0.0732421880.5735,0.122070313,0.190429688,0.185546875,0.0634765630.574,0.122070313,0.205078125,0.126953125,0.058593750.5745,0.068359375,0.239257813,0.083007813,0.058593750.575,0.063476563,0.21484375,0.146484375,0.0634765630.5755,0.107421875,0.219726563,0.146484375,0.0537109380.576,0.107421875,0.15625,0.073242188,0.0341796880.5765,-0.004882813,0.190429688,0.1171875,0.0048828130.577,-0.014648438,0.224609375,0.102539063,0.0878906250.5775,0.053710938,0.258789063,0.13671875,0.0634765630.578,0.107421875,0.219726563,0.131835938,0.0878906250.5785,0.092773438,0.317382813,0.17578125,0.156250.579,0.09765625,0.366210938,0.141601563,0.1318359380.5795,0.05859375,0.317382813,0.126953125,0.1123046880.58,0.073242188,0.1171875,0.107421875,0.097656250.5805,0.087890625,-0.102539063,0.112304688,0.0537109380.581,0.102539063,-0.078125,0.151367188,0.0537109380.5815,0.029296875,0.170898438,0.170898438,0.0732421880.582,0.112304688,0.297851563,0.126953125,0.1220703130.5825,0.13671875,0.561523438,0.170898438,0.0781250.583,0.146484375,0.561523438,0.170898438,0.0732421880.5835,0.107421875,0.283203125,0.102539063,0.1318359380.584,0.01953125,0.244140625,0.141601563,0.0439453130.5845,0.068359375,0.33203125,0.102539063,0.0927734380.585,0.068359375,0.151367188,0.107421875,0.0537109380.5855,0.102539063,0.043945313,0.161132813,0.1074218750.586,0.078125,0.043945313,0.131835938,0.11718750.5865,0.078125,0.1953125,0.092773438,0.1464843750.587,0.131835938,0.346679688,0.122070313,0.1220703130.5875,0.083007813,0.473632813,0.151367188,0.1123046880.588,0.102539063,0.3515625,0.190429688,0.11718750.5885,0.102539063,0.092773438,0.185546875,0.0830078130.589,0.151367188,0.063476563,0.141601563,0.0927734380.5895,0.087890625,0.166015625,0.141601563,0.0634765630.59,0.063476563,0.15625,0.170898438,0.0683593750.5905,0.063476563,0.122070313,0.126953125,0.097656250.591,0.087890625,0.05859375,0.126953125,0.0878906250.5915,0.092773438,0.05859375,0.13671875,0.1318359380.592,0.053710938,0.1171875,0.131835938,0.1611328130.5925,0.068359375,0.09765625,0.161132813,0.1074218750.593,0.068359375,0.141601563,0.1953125,0.0830078130.5935,0.063476563,0.166015625,0.131835938,0.1464843750.594,0.1171875,0.1953125,0.131835938,0.0927734380.5945,0.112304688,0.166015625,0.17578125,0.0537109380.595,0.083007813,0.224609375,0.131835938,0.11718750.5955,0.107421875,0.234375,0.073242188,0.156250.596,0.05859375,0.297851563,0.112304688,0.11718750.5965,0.068359375,0.341796875,0.102539063,0.1269531250.597,0.073242188,0.419921875,0.112304688,0.1123046880.5975,0.09765625,0.380859375,0.141601563,0.11718750.598,0.09765625,0.297851563,0.131835938,0.1220703130.5985,0.102539063,0.2734375,0.166015625,0.0878906250.599,0.083007813,0.283203125,0.15625,0.0878906250.5995,0.126953125,0.166015625,0.161132813,0.0488281250.6,0.083007813,0.131835938,0.141601563,0.0830078130.6005,0.009765625,0.112304688,0.161132813,0.0634765630.601,0.029296875,0.126953125,0.151367188,0.058593750.6015,0.078125,0.122070313,0.170898438,0.058593750.602,0.09765625,0.122070313,0.15625,0.0781250.6025,0.068359375,0.190429688,0.161132813,0.1464843750.603,0.009765625,0.219726563,0.126953125,0.1416015630.6035,0.068359375,0.283203125,0.146484375,0.1123046880.604,0.09765625,0.180664063,0.170898438,0.1269531250.6045,0.048828125,0.151367188,0.107421875,0.1513671880.605,0.01953125,0.234375,0.112304688,0.1123046880.6055,0.073242188,0.170898438,0.146484375,0.1074218750.606,0.068359375,0.141601563,0.170898438,0.058593750.6065,0.063476563,0.141601563,0.126953125,0.0830078130.607,0.068359375,0.190429688,0.17578125,0.1123046880.6075,0.068359375,0.1953125,0.190429688,0.11718750.608,0.034179688,0.1953125,0.161132813,0.11718750.6085,0.004882813,0.200195313,0.161132813,0.0830078130.609,0.004882813,0.224609375,0.185546875,0.058593750.6095,0.0390625,0.13671875,0.092773438,0.0732421880.61,0.078125,0.141601563,0.13671875,0.0927734380.6105,0.05859375,0.180664063,0.161132813,0.0341796880.611,0.053710938,0.1953125,0.146484375,0.0634765630.6115,0.063476563,0.1953125,0.13671875,0.0781250.612,0.126953125,0.1953125,0.166015625,0.0537109380.6125,0.107421875,0.190429688,0.126953125,0.058593750.613,0.029296875,0.200195313,0.13671875,0.0830078130.6135,0.0390625,0.21484375,0.1171875,0.0781250.614,0.009765625,0.21484375,0.073242188,0.0537109380.6145,0.053710938,0.131835938,0.112304688,0.0830078130.615,0.073242188,-0.048828125,0.166015625,0.0927734380.6155,0.126953125,0.01953125,0.13671875,0.0488281250.616,0.087890625,0.234375,0.131835938,0.0683593750.6165,0.029296875,0.263671875,0.131835938,0.097656250.617,0.092773438,0.180664063,0.126953125,0.0537109380.6175,0.004882813,0.185546875,0.102539063,0.097656250.618,0.078125,0.190429688,0.126953125,0.0634765630.6185,0.087890625,0.1953125,0.131835938,-0.0097656250.619,0.014648438,0.209960938,0.13671875,0.0341796880.6195,0.024414063,0.161132813,0.073242188,0.0732421880.62,0.01953125,0.249023438,0.053710938,0.1074218750.6205,0.1171875,0.17578125,0.141601563,0.11718750.621,0.078125,0.21484375,0.092773438,0.11718750.6215,0.083007813,0.219726563,0.122070313,0.0732421880.622,0.01953125,0.234375,0.131835938,0.0683593750.6225,0.087890625,0.185546875,0.073242188,0.1025390630.623,0.1171875,0.1953125,0.083007813,0.0488281250.6235,0.063476563,0.205078125,0.092773438,0.0927734380.624,0.068359375,0.190429688,0.112304688,0.0732421880.6245,0.102539063,0.161132813,0.09765625,0.0732421880.625,0.01953125,0.200195313,0.146484375,0.097656250.6255,0.029296875,0.219726563,0.170898438,0.097656250.626,0.078125,0.161132813,0.131835938,0.136718750.6265,0.09765625,0.205078125,0.09765625,0.175781250.627,0.043945313,0.190429688,0.13671875,0.1416015630.6275,0.068359375,0.205078125,0.13671875,0.1074218750.628,0.063476563,0.1953125,0.122070313,0.1220703130.6285,0.063476563,0.190429688,0.092773438,0.0927734380.629,0.004882813,0.200195313,0.102539063,0.0830078130.6295,-0.009765625,0.1953125,0.112304688,0.0878906250.63,0.073242188,0.1953125,0.141601563,0.0488281250.6305,0.029296875,0.166015625,0.131835938,0.0781250.631,0.048828125,0.190429688,0.09765625,0.11718750.6315,0.014648438,0.229492188,0.078125,0.0732421880.632,0.034179688,0.13671875,0.092773438,0.0830078130.6325,0.068359375,0.170898438,0.102539063,0.0048828130.633,0.068359375,0.15625,0.073242188,0.0439453130.6335,0.083007813,0.13671875,0.122070313,0.1220703130.634,0.09765625,0.13671875,0.131835938,0.1123046880.6345,0.05859375,0.166015625,0.131835938,0.1123046880.635,0.05859375,0.151367188,0.131835938,0.0878906250.6355,0.014648438,0.146484375,0.126953125,0.0537109380.636,0.009765625,0.17578125,0.13671875,0.0634765630.6365,0,0.166015625,0.131835938,0.11718750.637,0.01953125,0.1953125,0.126953125,0.0878906250.6375,0.083007813,0.180664063,0.17578125,0.0830078130.638,0.092773438,0.13671875,0.141601563,0.0781250.6385,0.092773438,0.131835938,0.122070313,0.0341796880.639,0.068359375,0.180664063,0.13671875,0.019531250.6395,0.043945313,0.180664063,0.131835938,0.097656250.64,0.131835938,0.131835938,0.131835938,0.0634765630.6405,0.083007813,0.146484375,0.13671875,0.0683593750.641,0.102539063,0.17578125,0.092773438,0.1318359380.6415,0.078125,0.13671875,0.063476563,0.0732421880.642,0.092773438,0.141601563,0.034179688,0.0244140630.6425,0.078125,0.13671875,0.048828125,0.0878906250.643,0.0390625,0.141601563,0.166015625,-0.0048828130.6435,0.107421875,0.146484375,0.161132813,0.0439453130.644,0.063476563,0.13671875,0.185546875,0.0634765630.6445,0.107421875,0.13671875,0.229492188,0.0683593750.645,0.078125,0.151367188,0.161132813,0.097656250.6455,0.063476563,0.180664063,0.170898438,0.0927734380.646,0.078125,0.17578125,0.229492188,0.1123046880.6465,0.063476563,0.141601563,0.068359375,0.0634765630.647,0.1171875,0.131835938,-0.141601563,0.0634765630.6475,0.1171875,0.083007813,0.087890625,0.0537109380.648,0.05859375,0.107421875,0.419921875,0.0146484380.6485,0.0390625,0.112304688,0.703125,00.649,0.014648438,0.1171875,0.72265625,0.0048828130.6495,0.053710938,0.15625,0.09765625,0.0732421880.65,0.063476563,0.185546875,-0.29296875,0.0830078130.6505,0.131835938,0.166015625,-0.385742188,0.0878906250.651,0.029296875,0.102539063,-0.698242188,0.0634765630.6515,0.029296875,0.126953125,-0.434570313,0.0537109380.652,0.073242188,0.141601563,0.01953125,0.0097656250.6525,0.029296875,0.141601563,0.102539063,0.0097656250.653,0.053710938,0.131835938,0.229492188,0.0048828130.6535,0.0390625,0.092773438,0.21484375,00.654,0.0390625,0.09765625,0.209960938,0.0439453130.6545,0.009765625,0.141601563,0.13671875,0.097656250.655,0.063476563,0.170898438,0.131835938,0.1025390630.6555,0.092773438,0.151367188,0.087890625,0.0927734380.656,0.034179688,0.166015625,0.063476563,0.0634765630.6565,0.107421875,0.13671875,0.01953125,-0.0048828130.657,0.078125,0.131835938,0.014648438,0.019531250.6575,0.048828125,0.09765625,0.01953125,0.058593750.658,0,0.1171875,0.014648438,0.058593750.6585,0.014648438,0.107421875,0.043945313,0.0439453130.659,0.048828125,0.185546875,0.141601563,0.019531250.6595,0.043945313,0.146484375,0.141601563,0.1269531250.66,0.126953125,0.107421875,0.21484375,0.0878906250.6605,0.05859375,0.13671875,0.17578125,0.0439453130.661,0,0.166015625,0.15625,0.0683593750.6615,0.068359375,0.112304688,0.151367188,0.058593750.662,0.063476563,0.102539063,0.13671875,0.1318359380.6625,0.09765625,0.102539063,0.166015625,0.1464843750.663,0.05859375,0.078125,0.122070313,0.1513671880.6635,0.107421875,0.126953125,0.112304688,0.1123046880.664,0.073242188,0.112304688,0.1171875,0.1269531250.6645,0.0390625,0.1953125,0.1171875,0.11718750.665,0.073242188,0.15625,0.112304688,0.0683593750.6655,0.043945313,0.122070313,0.21484375,-0.0292968750.666,0.0390625,0.053710938,0.361328125,-0.0244140630.6665,0.092773438,0.029296875,0.561523438,-0.03906250.667,0.0390625,0.09765625,0.668945313,0.0292968750.6675,0.063476563,0.131835938,-0.087890625,0.058593750.668,0.068359375,0.102539063,-0.541992188,0.058593750.6685,0.126953125,0.107421875,-0.336914063,0.1074218750.669,0.112304688,0.073242188,-0.15625,0.0537109380.6695,0.053710938,0.102539063,0.3515625,0.058593750.67,0.048828125,0.1171875,0.21484375,0.0244140630.6705,0.009765625,0.078125,-0.05859375,0.0488281250.671,0.05859375,0.083007813,-0.034179688,0.03906250.6715,0.068359375,0.0390625,0.063476563,00.672,0.068359375,0.09765625,0.112304688,0.0439453130.6725,0.087890625,0.126953125,0.107421875,0.0683593750.673,0.043945313,0.107421875,0.239257813,0.058593750.6735,0.01953125,0.092773438,0.317382813,0.0537109380.674,0.063476563,0.09765625,0.341796875,0.019531250.6745,0.063476563,0.112304688,0.571289063,0.0634765630.675,0.073242188,0.0390625,0.288085938,0.1220703130.6755,0.078125,0.078125,-0.454101563,0.058593750.676,0.126953125,0.083007813,-0.46875,0.0732421880.6765,0.092773438,0.112304688,-0.161132813,0.0781250.677,0.068359375,0.09765625,0.112304688,0.058593750.6775,0.107421875,0.0390625,0.361328125,0.0537109380.678,0.063476563,0.083007813,0.327148438,0.0146484380.6785,0.0390625,0.083007813,-0.190429688,0.019531250.679,0.014648438,0.078125,-0.493164063,0.0878906250.6795,0.053710938,0.083007813,-0.458984375,0.0488281250.68,0.004882813,0.078125,-0.043945313,0.0488281250.6805,0.043945313,0.078125,0.590820313,-0.0488281250.681,0.029296875,0.112304688,0.859375,-0.0341796880.6815,0.073242188,0.048828125,0.600585938,0.0048828130.682,0.107421875,0.068359375,0.229492188,0.0292968750.6825,0.024414063,0.029296875,-0.190429688,0.0244140630.683,0.048828125,0.01953125,-0.034179688,0.058593750.6835,0.01953125,0.05859375,0.493164063,0.0244140630.684,0.024414063,0.029296875,0.629882813,-0.0292968750.6845,0.014648438,0.043945313,0.327148438,0.0439453130.685,0.068359375,0.087890625,0.13671875,0.0781250.6855,0.112304688,0.1171875,0,0.1464843750.686,0.048828125,0.063476563,0.083007813,0.058593750.6865,0.102539063,0.024414063,0.483398438,0.0244140630.687,0.087890625,0.029296875,0.512695313,0.0341796880.6875,0.068359375,0.063476563,-0.1171875,0.058593750.688,0,0.087890625,0.01953125,0.097656250.6885,0.004882813,0.102539063,0.5078125,0.1269531250.689,0.05859375,0.09765625,0.415039063,0.1123046880.6895,0.053710938,0.083007813,0.463867188,0.1074218750.69,0.01953125,0.1171875,-0.024414063,0.03906250.6905,0.048828125,0.078125,-0.883789063,00.691,0.043945313,0.083007813,-0.791015625,0.0781250.6915,0.05859375,0.034179688,0.004882813,0.1318359380.692,0.014648438,0.073242188,0.498046875,0.1416015630.6925,0.0390625,0.087890625,0.688476563,0.1318359380.693,0.029296875,0.048828125,0.258789063,0.1220703130.6935,0.009765625,0.068359375,-0.33203125,0.11718750.694,-0.014648438,0.092773438,-0.41015625,0.156250.6945,-0.048828125,0.073242188,-0.727539063,0.1318359380.695,0.009765625,0.043945313,-0.483398438,0.0830078130.6955,0.05859375,0.073242188,0.439453125,0.058593750.696,0.068359375,0.083007813,0.776367188,0.1074218750.6965,0.078125,0.05859375,0.502929688,0.1269531250.697,0.053710938,0.068359375,-0.053710938,0.156250.6975,0,0.122070313,-0.659179688,0.1464843750.698,-0.024414063,0.048828125,-0.46875,0.1464843750.6985,-0.024414063,0.029296875,0.112304688,0.136718750.699,-0.043945313,0.083007813,0.302734375,0.0927734380.6995,0.004882813,-0.009765625,0.073242188,0.1464843750.7,0.004882813,0.01953125,0.024414063,0.11718750.7005,0.048828125,0.01953125,0.151367188,0.1660156250.701,0.073242188,0.029296875,0.283203125,0.1708984380.7015,0.048828125,0.034179688,0.234375,0.175781250.702,0.034179688,0.05859375,0.073242188,0.1708984380.7025,0.043945313,0.048828125,-0.073242188,0.1708984380.703,0.0390625,0.048828125,-0.141601563,0.1708984380.7035,0.01953125,0.014648438,0.087890625,0.1660156250.704,0,0.009765625,0.083007813,0.175781250.7045,0.043945313,-0.0390625,0.043945313,0.1611328130.705,0.073242188,0.034179688,0.185546875,0.1123046880.7055,0.053710938,0.053710938,0.33203125,0.1464843750.706,0.048828125,0.053710938,0.532226563,0.136718750.7065,-0.01953125,0.01953125,0.44921875,0.1464843750.707,-0.004882813,0.01953125,0.224609375,0.1220703130.7075,0.0390625,-0.009765625,0.15625,0.1074218750.708,-0.029296875,0.05859375,0.263671875,0.1513671880.7085,0.009765625,0.01953125,0.068359375,0.1855468750.709,0.009765625,0.048828125,-0.283203125,0.1464843750.7095,0.053710938,0.0390625,-0.146484375,0.136718750.71,0,0.034179688,0.4296875,0.1855468750.7105,0.043945313,0.024414063,0.327148438,0.1708984380.711,0.034179688,-0.014648438,-0.126953125,0.1660156250.7115,-0.01953125,-0.004882813,-0.278320313,0.175781250.712,-0.048828125,0.009765625,-0.366210938,0.1660156250.7125,-0.043945313,0.024414063,-0.102539063,0.1464843750.713,0.029296875,0.014648438,0.239257813,0.2294921880.7135,0.014648438,0.024414063,0.400390625,0.2001953130.714,-0.014648438,0.068359375,0.48828125,0.2099609380.7145,0.068359375,0.0390625,0.522460938,0.2441406250.715,0.034179688,0.078125,-0.004882813,0.2197265630.7155,0.053710938,0.024414063,0.219726563,0.19531250.716,0.024414063,-0.068359375,0.2734375,0.175781250.7165,-0.043945313,-0.014648438,-0.478515625,0.1611328130.717,0.009765625,-0.029296875,-0.458984375,0.1464843750.7175,-0.05859375,-0.014648438,-0.141601563,0.2099609380.718,0.004882813,0.034179688,0.161132813,0.1660156250.7185,0.004882813,0.029296875,0.239257813,0.2246093750.719,0.048828125,0.014648438,0.209960938,0.2343750.7195,0.029296875,0.014648438,0.185546875,0.2001953130.72,0,-0.024414063,0.034179688,0.1660156250.7205,-0.01953125,-0.014648438,0.3515625,0.1269531250.721,-0.0390625,-0.0390625,1.044921875,0.1318359380.7215,-0.009765625,-0.004882813,1.015625,0.175781250.722,-0.029296875,0.014648438,0.083007813,0.1708984380.7225,0.014648438,0.009765625,-0.444335938,0.214843750.723,0,0,-0.151367188,0.19531250.7235,0.01953125,0.009765625,0.21484375,0.2050781250.724,0.05859375,0,0.463867188,0.2050781250.7245,0,-0.009765625,-0.161132813,0.1904296880.725,-0.024414063,-0.112304688,-0.83984375,0.1269531250.7255,-0.014648438,-0.107421875,-0.654296875,0.0781250.726,-0.024414063,-0.083007813,-0.063476563,0.058593750.7265,-0.034179688,-0.068359375,0.258789063,0.0927734380.727,-0.048828125,-0.05859375,0.239257813,0.1074218750.7275,-0.034179688,-0.05859375,0.122070313,0.0537109380.728,-0.034179688,-0.029296875,0.346679688,0.058593750.7285,0.0390625,-0.053710938,0.5859375,0.03906250.729,-0.004882813,-0.09765625,0.786132813,-0.0244140630.7295,-0.01953125,-0.126953125,0.864257813,0.0292968750.73,-0.043945313,-0.083007813,0.751953125,-0.0097656250.7305,0.004882813,-0.073242188,0.224609375,-0.0244140630.731,0.107421875,-0.1171875,-0.795898438,0.03906250.7315,0.01953125,-0.0390625,-1.020507813,0.0878906250.732,0.048828125,-0.053710938,0.034179688,0.0830078130.7325,0.102539063,-0.107421875,0.185546875,0.03906250.733,0.014648438,-0.122070313,-0.33203125,0.0439453130.7335,0.053710938,-0.13671875,-0.415039063,0.058593750.734,0.014648438,-0.13671875,-0.405273438,0.019531250.7345,0.063476563,-0.112304688,-0.385742188,0.0830078130.735,0.087890625,-0.151367188,-0.283203125,0.0927734380.7355,0.029296875,-0.024414063,0.610351563,0.0537109380.736,0.092773438,-0.068359375,1.264648438,0.03906250.7365,0.05859375,-0.043945313,1.23046875,0.0732421880.737,0.087890625,-0.05859375,0.126953125,0.0683593750.7375,0.01953125,-0.063476563,-1.069335938,0.058593750.738,0.107421875,-0.068359375,-0.786132813,-0.0146484380.7385,0.05859375,-0.068359375,-0.083007813,-0.0244140630.739,0.024414063,-0.126953125,-0.297851563,0.0097656250.7395,0.014648438,-0.122070313,-0.341796875,-0.0048828130.74,0.063476563,-0.092773438,0.131835938,0.0341796880.7405,0.092773438,-0.087890625,0.478515625,-0.019531250.741,0.09765625,-0.092773438,0.190429688,0.0097656250.7415,0.053710938,-0.029296875,-0.3515625,0.097656250.742,0.053710938,-0.004882813,-0.385742188,0.0927734380.7425,0.043945313,-0.092773438,0.092773438,0.03906250.743,0.068359375,-0.078125,0.327148438,0.0341796880.7435,0.01953125,-0.05859375,0.419921875,-0.0146484380.744,0.068359375,-0.083007813,0.463867188,-0.058593750.7445,0.087890625,-0.102539063,0.56640625,-0.0488281250.745,0.09765625,-0.05859375,0.458984375,-0.0097656250.7455,0.107421875,-0.004882813,0.502929688,-0.0244140630.746,0.087890625,-0.053710938,0.434570313,-0.0244140630.7465,0.122070313,-0.073242188,-0.327148438,0.0048828130.747,0.092773438,-0.029296875,-0.805664063,-0.0048828130.7475,0.068359375,-0.078125,-0.673828125,0.0048828130.748,0.126953125,-0.092773438,0.239257813,00.7485,0.107421875,-0.087890625,1.42578125,-0.0048828130.749,0.126953125,-0.1171875,0.83984375,-0.03906250.7495,0.068359375,-0.078125,-0.56640625,-0.0097656250.75,0.083007813,-0.073242188,-0.83984375,00.7505,0.166015625,-0.09765625,-0.083007813,00.751,0.087890625,-0.05859375,-0.053710938,-0.0097656250.7515,0.107421875,0.009765625,-0.52734375,00.752,0.053710938,-0.029296875,-0.366210938,00.7525,0.063476563,-0.083007813,-0.3515625,-0.0439453130.753,0.122070313,-0.122070313,-0.25390625,-0.0048828130.7535,0.034179688,-0.043945313,0.21484375,-0.0048828130.754,0.078125,-0.034179688,0.361328125,-0.0097656250.7545,0.073242188,-0.01953125,0.458984375,-0.0341796880.755,0.107421875,-0.043945313,0.224609375,-0.0244140630.7555,0.107421875,-0.024414063,-0.01953125,-0.0439453130.756,0.048828125,0.034179688,-0.004882813,0.03906250.7565,0.073242188,-0.024414063,0.249023438,0.0097656250.757,0.063476563,-0.063476563,0.498046875,-0.019531250.7575,0.05859375,-0.01953125,0.727539063,-0.0488281250.758,0.029296875,-0.014648438,0.307617188,-0.0292968750.7585,0.063476563,-0.068359375,-0.60546875,00.759,-0.004882813,-0.0390625,-0.78125,-0.0146484380.7595,0,-0.043945313,-0.56640625,-0.03906250.76,0.05859375,-0.068359375,-0.356445313,00.7605,0.01953125,-0.01953125,0.087890625,-0.0048828130.761,0.073242188,-0.043945313,0.263671875,-0.03906250.7615,0.01953125,-0.087890625,0.209960938,0.019531250.762,0,-0.024414063,0.375976563,0.03906250.7625,-0.009765625,0.014648438,0.458984375,0.0341796880.763,-0.048828125,-0.004882813,0.390625,0.0292968750.7635,0.043945313,-0.043945313,0.844726563,0.03906250.764,0.029296875,-0.034179688,1.884765625,-0.0292968750.7645,0.024414063,-0.029296875,1.743164063,-0.019531250.765,0.034179688,-0.034179688,-0.405273438,0.019531250.7655,0.009765625,0,-2.119140625,0.0488281250.766,-0.004882813,0.029296875,-1.313476563,0.0537109380.7665,-0.053710938,-0.01953125,0.463867188,0.019531250.767,-0.043945313,0,1.89453125,0.0097656250.7675,-0.053710938,0,1.225585938,0.0488281250.768,-0.043945313,0.029296875,-0.444335938,-0.0292968750.7685,-0.01953125,0.004882813,-1.376953125,-0.0146484380.769,0.004882813,-0.029296875,-1.748046875,0.0439453130.7695,0.009765625,-0.073242188,-1.196289063,00.77,0.004882813,-0.043945313,-0.131835938,-0.0341796880.7705,-0.029296875,-0.029296875,0.639648438,-0.0537109380.771,0.014648438,-0.0390625,0.434570313,-0.0146484380.7715,0.01953125,-0.034179688,-0.107421875,-0.0146484380.772,0.053710938,-0.024414063,-0.532226563,0.0683593750.7725,0.009765625,0,-0.083007813,0.0488281250.773,0.004882813,-0.034179688,0.268554688,0.0341796880.7735,0.0390625,-0.063476563,0.366210938,-0.0537109380.774,0.01953125,-0.048828125,0.434570313,-0.0244140630.7745,0.004882813,-0.043945313,0.161132813,0.0048828130.775,0.009765625,-0.034179688,-0.209960938,0.0488281250.7755,0.048828125,0.034179688,-0.131835938,0.0341796880.776,-0.034179688,-0.029296875,0.034179688,-0.0048828130.7765,-0.024414063,-0.05859375,-0.102539063,0.0097656250.777,-0.01953125,-0.063476563,-0.107421875,0.019531250.7775,-0.053710938,-0.024414063,0.029296875,-0.0537109380.778,-0.004882813,-0.0390625,0.131835938,-0.0537109380.7785,-0.024414063,0.01953125,0.205078125,-0.019531250.779,0.004882813,0.029296875,-0.122070313,0.0439453130.7795,-0.029296875,0.01953125,-0.244140625,0.0146484380.78,0.01953125,0.009765625,0.283203125,0.0292968750.7805,0.063476563,-0.053710938,0.68359375,0.0439453130.781,0.034179688,-0.0390625,0.678710938,0.0488281250.7815,0.053710938,0.0390625,0.278320313,0.0146484380.782,0.063476563,0.014648438,-0.356445313,0.0439453130.7825,0.063476563,0.014648438,-0.5078125,0.0341796880.783,0.034179688,0.029296875,-0.048828125,0.0341796880.7835,-0.0390625,0.053710938,0.01953125,-0.0097656250.784,-0.004882813,-0.01953125,-0.043945313,0.0341796880.7845,-0.048828125,0.01953125,0.166015625,-0.0146484380.785,-0.01953125,-0.009765625,0.268554688,-0.0048828130.7855,0.014648438,0,0.180664063,-0.0634765630.786,0.014648438,0.083007813,0.244140625,0.0048828130.7865,0.048828125,0.05859375,0.380859375,0.0732421880.787,0.043945313,0.01953125,0.654296875,0.0439453130.7875,0.073242188,0.034179688,0.33203125,0.0048828130.788,0.083007813,0.014648438,-0.439453125,0.0341796880.7885,-0.004882813,0.01953125,-0.361328125,0.0146484380.789,-0.024414063,0.004882813,0.17578125,-0.0146484380.7895,0.004882813,0.034179688,0.434570313,-0.0244140630.79,-0.01953125,0.083007813,0.170898438,0.0341796880.7905,0.05859375,0.063476563,-0.263671875,0.0878906250.791,0.068359375,0.078125,-0.498046875,0.019531250.7915,0.112304688,0.1171875,-0.395507813,-0.0097656250.792,0.122070313,0.068359375,0.122070313,0.0048828130.7925,0.444335938,0.0390625,0.595703125,0.0439453130.793,0.844726563,0.063476563,0.473632813,-0.0146484380.7935,0.5078125,0.063476563,0.346679688,-0.1904296880.794,0.01953125,0.083007813,0.053710938,-0.2587890630.7945,-0.063476563,0.078125,-0.01953125,-0.292968750.795,-0.009765625,0.112304688,0.3515625,-0.253906250.7955,0,0.13671875,0.17578125,-0.0878906250.796,0.17578125,0.083007813,-0.263671875,0.03906250.7965,0.522460938,0.043945313,-0.361328125,0.1708984380.797,0.634765625,0.05859375,-0.25390625,0.2392578130.7975,0.234375,-0.009765625,-0.087890625,0.1806640630.798,-0.249023438,0.014648438,0.029296875,0.0830078130.7985,-0.258789063,0.068359375,0.05859375,0.0830078130.799,-0.21484375,0.048828125,0.092773438,0.0537109380.7995,-0.170898438,0.1171875,0.15625,0.0439453130.8,-0.063476563,0.102539063,0.258789063,-0.0097656250.8005,-0.009765625,0.112304688,0.258789063,0.0341796880.801,0.126953125,0.053710938,0.107421875,-0.03906250.8015,0.185546875,0.024414063,-0.268554688,-0.0830078130.802,0.112304688,0.068359375,-0.341796875,-0.0878906250.8025,0.048828125,0.0390625,-0.034179688,-0.11718750.803,0.0390625,0.083007813,0.107421875,-0.0878906250.8035,0,0.078125,0.126953125,-0.0341796880.804,0.053710938,0.068359375,0.068359375,0.019531250.8045,0.131835938,0.043945313,0.01953125,0.0537109380.805,0.092773438,0.083007813,0.1171875,0.0634765630.8055,0.151367188,0.068359375,0.102539063,0.058593750.806,0.224609375,0.0390625,0.073242188,0.0292968750.8065,0.131835938,0.053710938,0.068359375,-0.03906250.807,0.0390625,0.13671875,0.05859375,-0.1220703130.8075,0.004882813,0.107421875,0.37109375,-0.156250.808,0,0.073242188,0.556640625,-0.0781250.8085,-0.009765625,0.0390625,0.141601563,-0.0634765630.809,-0.053710938,0.087890625,-0.229492188,-0.097656250.8095,-0.009765625,0.078125,-0.395507813,-0.0341796880.81,0.068359375,0.073242188,-0.493164063,-0.0634765630.8105,0.043945313,0.102539063,-0.1171875,-0.292968750.811,0,0.112304688,0.302734375,-0.4785156250.8115,0.009765625,0.073242188,0.512695313,-0.4980468750.812,-0.024414063,0.078125,0.258789063,-0.3808593750.8125,0.0390625,0.024414063,-0.073242188,-0.1464843750.813,-0.014648438,0.043945313,-0.014648438,0.0488281250.8135,-0.004882813,0.087890625,0.083007813,0.2001953130.814,0.112304688,0.034179688,0.073242188,0.2978515630.8145,0.166015625,0.063476563,0.107421875,0.2050781250.815,0.268554688,0.078125,0.078125,0.0341796880.8155,0.29296875,0.083007813,0.014648438,0.0146484380.816,0.25390625,0.053710938,0.014648438,0.1611328130.8165,0.219726563,0.107421875,-0.014648438,0.4833984380.817,0.205078125,0.112304688,-0.004882813,0.527343750.8175,0.244140625,0.078125,-0.029296875,0.3417968750.818,0.146484375,0.078125,0.009765625,0.0878906250.8185,0.13671875,0.0390625,0.048828125,-0.0683593750.819,0.166015625,0.087890625,0.068359375,-0.058593750.8195,0.151367188,0.083007813,0.083007813,-0.1074218750.82,0.180664063,0.078125,0.073242188,-0.0683593750.8205,0.1171875,0.083007813,0.048828125,0.03906250.821,0.063476563,0.063476563,0.043945313,0.0244140630.8215,0.004882813,0.043945313,-0.014648438,0.03906250.822,0,0.083007813,0.01953125,-0.0146484380.8225,0.126953125,0.01953125,-0.024414063,-0.058593750.823,0.102539063,0.0390625,0.05859375,-0.0146484380.8235,0.092773438,0.087890625,0.107421875,0.0830078130.824,0.078125,0.112304688,0.053710938,0.175781250.8245,-0.004882813,0.141601563,0.112304688,0.1904296880.825,-0.092773438,0.13671875,0.107421875,0.1513671880.8255,-0.161132813,0.102539063,0.068359375,0.1464843750.826,0.0390625,0.034179688,0.014648438,0.097656250.8265,0.634765625,0.043945313,0.053710938,0.0634765630.827,1.123046875,0.092773438,0.01953125,0.1025390630.8275,0.893554688,0.043945313,-0.024414063,0.1025390630.828,0.4296875,0.087890625,-0.024414063,0.0781250.8285,0.283203125,0.078125,-0.073242188,0.0878906250.829,0.205078125,0.122070313,0.05859375,0.0488281250.8295,0.234375,0.102539063,0.078125,0.0488281250.83,0.1953125,0.107421875,0.073242188,0.0488281250.8305,0.166015625,0.078125,0.048828125,0.35156250.831,0.126953125,0.083007813,0.053710938,0.7031250.8315,0.322265625,0.073242188,0.043945313,0.74218750.832,0.600585938,0.053710938,0.05859375,0.468750.8325,0.200195313,0.09765625,0.0390625,0.2490234380.833,-0.21484375,0.087890625,0.083007813,0.019531250.8335,-0.336914063,0.102539063,0.083007813,-0.058593750.834,-0.297851563,0.13671875,0.073242188,0.2832031250.8345,-0.15625,0.083007813,0.073242188,0.527343750.835,-0.073242188,0.09765625,0.048828125,0.27343750.8355,-0.053710938,0.107421875,0.0390625,-0.2832031250.836,0.014648438,0.078125,-0.01953125,-0.5371093750.8365,-0.087890625,0.131835938,0.05859375,-0.6152343750.837,-0.0390625,0.112304688,0.073242188,-0.722656250.8375,0.078125,0.043945313,0.029296875,-0.7128906250.838,0.200195313,0.131835938,0.024414063,-0.3613281250.8385,0.263671875,0.126953125,0.043945313,0.2294921880.839,0.4296875,0.073242188,0.048828125,0.6542968750.8395,0.458984375,0.166015625,0.073242188,0.781250.84,0.346679688,0.09765625,0.073242188,0.5908203130.8405,0.219726563,0.09765625,0.078125,0.2685546880.841,0.083007813,0.078125,0.078125,-0.0292968750.8415,0.087890625,0.034179688,0.063476563,-0.1904296880.842,0.073242188,0.01953125,0.0390625,-0.3466796880.8425,0.102539063,0.141601563,0.083007813,-0.371093750.843,0.244140625,0.141601563,0.073242188,-0.1025390630.8435,0.434570313,0.17578125,0.048828125,0.371093750.844,1.010742188,0.107421875,0.107421875,0.5908203130.8445,1.181640625,0.1171875,0.053710938,0.605468750.845,1.005859375,0.131835938,0.083007813,0.4785156250.8455,0.7421875,0.078125,0.048828125,0.292968750.846,0.424804688,0.107421875,0.063476563,0.11718750.8465,0.52734375,0.146484375,0.107421875,0.0048828130.847,0.532226563,0.09765625,0.102539063,0.0683593750.8475,0.15625,0.131835938,0.078125,0.2343750.848,0.883789063,0.141601563,0.131835938,0.2783203130.8485,1.748046875,0.102539063,0.087890625,0.19531250.849,1.181640625,0.078125,0.01953125,0.1708984380.8495,0.444335938,0.083007813,0.029296875,0.03906250.85,0.170898438,0.09765625,0.048828125,0.0341796880.8505,0.29296875,0.141601563,0.0390625,0.2685546880.851,0.33203125,0.13671875,0.083007813,0.5810546880.8515,0.46875,0.126953125,0.068359375,0.7031250.852,0.390625,0.13671875,0.122070313,0.2783203130.8525,-0.151367188,0.141601563,0.131835938,-0.2978515630.853,-0.571289063,0.166015625,0.126953125,-0.5761718750.8535,-0.29296875,0.146484375,0.063476563,-0.3222656250.854,0.258789063,0.1171875,0.048828125,-0.0146484380.8545,0.825195313,0.073242188,0.0390625,-0.1806640630.855,0.9765625,0.087890625,0.083007813,-0.5126953130.8555,0.571289063,0.126953125,0.09765625,-0.6982421880.856,0.229492188,0.13671875,0.029296875,-0.7910156250.8565,0.087890625,0.141601563,0.0390625,-0.781250.857,0.151367188,0.131835938,0.107421875,-0.6005859380.8575,0.546875,0.102539063,0.09765625,-0.3173828130.858,0.302734375,0.1953125,0.122070313,0.0146484380.8585,-0.009765625,0.15625,0.092773438,0.2099609380.859,-0.0390625,0.126953125,0.009765625,0.0634765630.8595,0.0390625,0.13671875,0.034179688,-0.1318359380.86,0.15625,0.092773438,0.01953125,-0.1513671880.8605,0.576171875,0.166015625,0.092773438,-0.2294921880.861,1.411132813,0.166015625,0.087890625,-0.2001953130.8615,1.318359375,0.170898438,0.034179688,-0.0732421880.862,0.463867188,0.161132813,0.0390625,0.1269531250.8625,0.102539063,0.205078125,0.029296875,0.1074218750.863,0.170898438,0.185546875,0.078125,00.8635,0.463867188,0.151367188,0.043945313,0.0341796880.864,1.118164063,0.141601563,0.014648438,0.1074218750.8645,1.279296875,0.112304688,0.014648438,0.1611328130.865,0.463867188,0.083007813,0.0390625,0.03906250.8655,-0.390625,0.131835938,0.078125,-0.2050781250.866,-0.561523438,0.122070313,0.029296875,-0.1855468750.8665,-0.439453125,0.102539063,0.05859375,-0.1025390630.867,0.297851563,0.180664063,0.01953125,0.03906250.8675,1.118164063,0.15625,0.014648438,0.2880859380.868,1.020507813,0.141601563,0.024414063,0.5810546880.8685,0.244140625,0.161132813,0.068359375,0.5957031250.869,-0.454101563,0.219726563,0.092773438,0.42968750.8695,-0.424804688,0.166015625,0.13671875,0.2246093750.87,-0.17578125,0.131835938,0.161132813,0.136718750.8705,-0.400390625,0.161132813,0.141601563,0.0634765630.871,-0.727539063,0.200195313,0.112304688,0.0439453130.8715,-0.869140625,0.185546875,0.09765625,-0.0048828130.872,-0.532226563,0.141601563,0.131835938,-0.0732421880.8725,0.034179688,0.13671875,0.034179688,-0.0341796880.873,0.366210938,0.161132813,0.009765625,0.0048828130.8735,0.263671875,0.1953125,0.048828125,-0.058593750.874,0.13671875,0.161132813,0.112304688,-0.1513671880.8745,0.166015625,0.190429688,0.078125,-0.1806640630.875,0.576171875,0.1953125,0.078125,-0.214843750.8755,0.874023438,0.1953125,0.102539063,-0.1513671880.876,0.659179688,0.141601563,0.09765625,-0.1513671880.8765,0.073242188,0.13671875,0.083007813,-0.3076171880.877,-0.556640625,0.131835938,0.112304688,-0.3222656250.8775,-0.258789063,0.09765625,0.0390625,-0.1855468750.878,0.546875,0.131835938,0.01953125,-0.0048828130.8785,0.444335938,0.13671875,0.029296875,0.2050781250.879,-0.122070313,0.126953125,0.048828125,0.292968750.8795,-0.556640625,0.13671875,0.043945313,0.2832031250.88,-0.239257813,0.13671875,0.009765625,0.097656250.8805,0.161132813,0.146484375,0,-0.03906250.881,-0.322265625,0.166015625,0.034179688,-0.0634765630.8815,-0.908203125,0.126953125,0.009765625,-0.0292968750.882,-0.874023438,0.146484375,0.014648438,0.0341796880.8825,-0.512695313,0.180664063,0.048828125,0.136718750.883,-0.25390625,0.102539063,0.112304688,0.1123046880.8835,0.063476563,0.1171875,0.048828125,-0.0488281250.884,0.297851563,0.141601563,0.05859375,-0.1904296880.8845,0.41015625,0.083007813,0.043945313,-0.2783203130.885,0.463867188,0.107421875,0.068359375,-0.4980468750.8855,0.224609375,0.1171875,0.083007813,-0.7910156250.886,0.15625,0.122070313,0.078125,-1.1230468750.8865,0.087890625,0.126953125,0.122070313,-1.0595703130.887,0,0.053710938,0.068359375,-0.0927734380.8875,0.102539063,0.063476563,0.009765625,0.839843750.888,0.122070313,0.13671875,0.087890625,0.9667968750.8885,0.05859375,0.141601563,0.102539063,0.82031250.889,-0.029296875,0.112304688,0.068359375,0.74218750.8895,-0.200195313,0.112304688,0.073242188,0.3564453130.89,-0.244140625,0.09765625,0.0390625,-0.0537109380.8905,-0.3125,0.078125,0.05859375,-0.2685546880.891,-0.263671875,0.107421875,0.068359375,-0.371093750.8915,0.043945313,0.107421875,0.034179688,-0.3417968750.892,0.595703125,0.087890625,0.048828125,-0.3173828130.8925,0.639648438,0.126953125,0.014648438,-0.2783203130.893,0.200195313,0.107421875,0.01953125,-0.2343750.8935,0.009765625,0.141601563,0.014648438,-0.2099609380.894,-0.083007813,0.083007813,0.014648438,-0.2490234380.8945,-0.493164063,0.0390625,-0.029296875,-0.3955078130.895,-1.088867188,0.083007813,-0.024414063,-0.3857421880.8955,-1.1328125,0.112304688,0.01953125,-0.2294921880.896,-0.317382813,0.087890625,0.009765625,-0.0341796880.8965,-0.102539063,0.063476563,0.01953125,0.1123046880.897,-0.581054688,0.053710938,0.0390625,0.1904296880.8975,-1.259765625,0.048828125,0.09765625,0.1904296880.898,-1.640625,0.068359375,0.131835938,0.0048828130.8985,-0.971679688,0.083007813,0.078125,-0.1074218750.899,0.356445313,0.102539063,0.034179688,-0.1269531250.8995,0.615234375,0.141601563,0.078125,-0.19531250.9,0.249023438,0.087890625,0.0390625,-0.2001953130.9005,0.258789063,0.073242188,0.048828125,-0.1708984380.901,0.48828125,0.083007813,0.05859375,-0.19531250.9015,0.698242188,0.043945313,0.107421875,-0.2001953130.902,0.668945313,0.01953125,0.029296875,-0.1708984380.9025,0.478515625,0.078125,0.01953125,-0.214843750.903,0.395507813,0.053710938,0.014648438,-0.2050781250.9035,0.4296875,0.048828125,0.014648438,-0.0781250.904,0.576171875,0.063476563,0.05859375,0.0341796880.9045,0.498046875,0.112304688,0.078125,0.1123046880.905,0.33203125,0.102539063,0.087890625,0.156250.9055,-0.087890625,0.146484375,0.1171875,0.1708984380.906,-0.25390625,0.087890625,0.063476563,0.1269531250.9065,0.361328125,0.073242188,0.073242188,-0.0439453130.907,0.966796875,0.068359375,0.068359375,-0.1708984380.9075,0.625,0.01953125,0.01953125,-0.2392578130.908,0.1171875,0.068359375,0.053710938,-0.2880859380.9085,0.327148438,0.048828125,0.053710938,-0.2490234380.909,0.703125,0.102539063,0.073242188,-0.214843750.9095,0.385742188,0.1171875,0.141601563,-0.1904296880.91,0.014648438,0.122070313,0.13671875,-0.2001953130.9105,-0.004882813,0.078125,0.126953125,-0.1708984380.911,-0.01953125,0.05859375,0.092773438,-0.3662109380.9115,0.034179688,0.068359375,0.092773438,-0.6738281250.912,0.356445313,0.078125,0.034179688,-0.3906250.9125,0.859375,0.043945313,0.053710938,-0.097656250.913,0.703125,0.068359375,0.053710938,-0.2490234380.9135,0.390625,0.048828125,0.063476563,-0.2490234380.914,0.361328125,0.092773438,0.112304688,0.1269531250.9145,0.415039063,0.107421875,0.068359375,0.7861328130.915,0.439453125,0.048828125,0.087890625,1.1083984380.9155,0.346679688,0.063476563,0.122070313,0.7763671880.916,0.356445313,0.05859375,0.073242188,0.1855468750.9165,0.13671875,0.083007813,0.068359375,-0.3466796880.917,-0.8984375,0.078125,-0.024414063,-0.6005859380.9175,-1.850585938,0.112304688,-0.063476563,-0.6494140630.918,-1.459960938,0.09765625,0.004882813,-0.4785156250.9185,-0.336914063,0.087890625,0,-0.3076171880.919,0.05859375,0.1171875,0.078125,-0.3808593750.9195,-0.004882813,0.073242188,0.107421875,-0.3466796880.92,-0.073242188,0.083007813,0.073242188,-0.0537109380.9205,-0.385742188,0.034179688,0.0390625,0.2343750.921,-0.600585938,0.083007813,0.063476563,0.3613281250.9215,-0.571289063,0.053710938,0.083007813,0.3564453130.922,-0.336914063,0.05859375,0.048828125,0.1855468750.9225,-0.063476563,0.087890625,0.107421875,0.0634765630.923,0.063476563,0.09765625,0.161132813,0.0683593750.9235,0.13671875,0.09765625,0.068359375,0.1123046880.924,0.034179688,0.043945313,0.05859375,0.1025390630.9245,-0.014648438,0.112304688,0.083007813,0.0048828130.925,0.805664063,0.05859375,0.034179688,-0.3222656250.9255,1.328125,0.048828125,0.014648438,-0.6152343750.926,0.76171875,0.048828125,0.01953125,-0.6787109380.9265,0.493164063,0.014648438,0.01953125,-0.5517578130.927,1.083984375,0.048828125,0.107421875,-0.2392578130.9275,1.474609375,0.083007813,0.087890625,0.11718750.928,1.059570313,0.107421875,0.107421875,0.2246093750.9285,0.5859375,0.09765625,0.078125,0.253906250.929,0.234375,0.078125,0.034179688,0.2246093750.9295,-0.146484375,0.078125,-0.004882813,0.1513671880.93,-0.400390625,0.083007813,0.009765625,0.0683593750.9305,-0.654296875,0.0390625,0.014648438,-0.0634765630.931,-0.786132813,0.063476563,-0.009765625,-0.0927734380.9315,-0.83984375,0.083007813,0.063476563,-0.0683593750.932,-0.825195313,0.13671875,0.126953125,-0.0634765630.9325,-0.776367188,0.131835938,0.068359375,-0.0878906250.933,-0.72265625,0.126953125,0.053710938,0.058593750.9335,-0.546875,0.043945313,0.034179688,0.2490234380.934,-0.48828125,0.05859375,0.053710938,0.0781250.9345,-0.473632813,0.092773438,0.01953125,0.0292968750.935,-0.551757813,0.05859375,0.053710938,0.0683593750.9355,-0.649414063,0.048828125,0.05859375,-0.0537109380.936,-0.571289063,0.087890625,0.1171875,-0.214843750.9365,-0.33203125,0.087890625,0.068359375,-0.1269531250.937,-0.209960938,0.126953125,0.09765625,-0.0732421880.9375,-0.102539063,0.13671875,0.151367188,-0.0878906250.938,-0.112304688,0.151367188,0.068359375,-0.058593750.9385,-0.048828125,0.083007813,0.048828125,-0.0634765630.939,-0.029296875,0.068359375,0.063476563,-0.0878906250.9395,-0.014648438,0.043945313,0.068359375,-0.0537109380.94,0.009765625,0.087890625,0.043945313,-0.0146484380.9405,0.131835938,0.073242188,0.078125,-0.0341796880.941,0.180664063,0.083007813,0.1171875,-0.0683593750.9415,0.244140625,0.083007813,0.122070313,-0.0732421880.942,0.209960938,0.078125,0.068359375,-0.0683593750.9425,0.13671875,0.068359375,0.073242188,-0.1220703130.943,0.146484375,0.034179688,0.034179688,-0.0244140630.9435,0.05859375,0.048828125,0.029296875,-0.0537109380.944,0.102539063,0.083007813,0.102539063,-0.1025390630.9445,-0.014648438,0.068359375,0.09765625,-0.0537109380.945,-0.01953125,0.043945313,0.029296875,-0.058593750.9455,-0.17578125,0.083007813,0.068359375,-0.0634765630.946,-0.434570313,0.078125,0.068359375,-0.0732421880.9465,-0.458984375,0.078125,0.092773438,-0.0878906250.947,-0.122070313,0.083007813,0.034179688,-0.0634765630.9475,0.25390625,0.083007813,0.073242188,-0.1074218750.948,-0.209960938,0.073242188,0.068359375,-0.11718750.9485,-0.883789063,0.092773438,0.073242188,-0.0634765630.949,-0.537109375,0.13671875,0.073242188,-0.0341796880.9495,-0.029296875,0.107421875,0.073242188,-0.11718750.95,0.131835938,0.1171875,0.083007813,-0.0927734380.9505,0.288085938,0.102539063,0.068359375,-0.0781250.951,0.747070313,0.112304688,0.029296875,-0.11718750.9515,1.079101563,0.05859375,0.024414063,-0.0634765630.952,1.064453125,0.01953125,0.0390625,-0.0878906250.9525,0.810546875,0.068359375,0.0390625,-0.2392578130.953,0.654296875,0.073242188,0.024414063,-0.214843750.9535,0.498046875,0.043945313,0.073242188,-0.0927734380.954,0.297851563,0.078125,0.073242188,-0.0537109380.9545,0.107421875,0.048828125,0.078125,0.0048828130.955,-0.043945313,0.073242188,0.078125,0.0878906250.9555,-0.249023438,0.083007813,0.107421875,0.1123046880.956,-0.302734375,0.087890625,0.083007813,0.03906250.9565,-0.278320313,0.073242188,0.014648438,0.0292968750.957,-0.805664063,0.073242188,0.029296875,0.03906250.9575,-1.689453125,0.107421875,0.0390625,0.1513671880.958,-1.064453125,0.13671875,0.034179688,0.2050781250.9585,0.78125,0.083007813,0.078125,0.1074218750.959,1.928710938,0.063476563,0.0390625,0.0927734380.9595,2.119140625,0.1171875,0.034179688,0.03906250.96,1.411132813,0.048828125,0.063476563,-0.03906250.9605,-0.004882813,0.068359375,0.014648438,-0.019531250.961,-0.903320313,0.078125,0.01953125,0.0146484380.9615,-1.181640625,0.078125,0.05859375,-0.0048828130.962,-1.34765625,0.1171875,0,-0.2050781250.9625,-1.943359375,0.107421875,-0.014648438,-0.3369140630.963,-2.290039063,0.185546875,0.0390625,-0.27343750.9635,-1.279296875,0.146484375,0.068359375,-0.0439453130.964,-0.327148438,0.102539063,0.078125,0.0878906250.9645,0.537109375,0.102539063,0,0.2099609380.965,1.85546875,0.078125,-0.092773438,-0.0097656250.9655,2.036132813,0.078125,-0.073242188,-0.4736328130.966,1.137695313,0.078125,0.004882813,-0.488281250.9665,0.29296875,0.092773438,-0.073242188,-0.27343750.967,0.41015625,0.122070313,0.0390625,0.3222656250.9675,0.615234375,0.083007813,0.131835938,0.9228515630.968,0.25390625,0.107421875,0.126953125,0.761718750.9685,-0.053710938,0.102539063,0.107421875,0.3222656250.969,-0.029296875,0.078125,0.0390625,0.175781250.9695,0.4296875,0.078125,0.063476563,0.2636718750.97,0.854492188,0.083007813,0.078125,0.1123046880.9705,0.56640625,0.087890625,0.048828125,-0.5175781250.971,0.41015625,0.078125,0.048828125,-0.9082031250.9715,0.400390625,0.09765625,0.092773438,-0.8447265630.972,-0.209960938,0.112304688,0.112304688,-0.410156250.9725,-0.5859375,0.068359375,0.068359375,0.1855468750.973,-0.56640625,0.083007813,0.1171875,0.4150390630.9735,-0.571289063,0.073242188,0.0390625,0.4736328130.974,-0.600585938,0.073242188,0.024414063,0.4394531250.9745,-0.6640625,0.048828125,0.063476563,0.31250.975,-0.629882813,0.068359375,0.043945313,0.2685546880.9755,-0.405273438,0.073242188,0.034179688,0.3759765630.976,-0.224609375,0.053710938,0.078125,0.58593750.9765,-0.122070313,0.05859375,0.102539063,0.644531250.977,0.034179688,0.034179688,0.102539063,0.4541015630.9775,0.09765625,0.043945313,0.078125,0.019531250.978,0.09765625,0.053710938,0.073242188,-0.292968750.9785,0.361328125,0.014648438,0.024414063,-0.3027343750.979,0.712890625,0.087890625,0.0390625,-0.3222656250.9795,0.78125,0.05859375,0.043945313,-0.3613281250.98,0.463867188,0.014648438,0.009765625,-0.27343750.9805,0.107421875,0.073242188,0.05859375,-0.1904296880.981,-0.102539063,0.1171875,0.083007813,0.058593750.9815,-0.122070313,0.078125,0.078125,0.2685546880.982,-0.234375,0.112304688,0.078125,0.214843750.9825,-0.1953125,0.092773438,0.043945313,0.1220703130.983,-0.190429688,-0.009765625,0.048828125,0.058593750.9835,-0.37109375,0.01953125,0.043945313,-0.0048828130.984,-0.390625,0.043945313,0.034179688,00.9845,-0.37109375,0.087890625,0.087890625,-0.0341796880.985,-0.2734375,0.092773438,0.009765625,0.0048828130.9855,-0.17578125,0.1171875,0.01953125,00.986,0.068359375,0.107421875,0.034179688,0.0439453130.9865,0.654296875,0.112304688,0.05859375,00.987,1.010742188,0.05859375,0.009765625,-0.0292968750.9875,0.478515625,0.034179688,0.024414063,-0.0634765630.988,-0.219726563,0.078125,0.029296875,-0.0537109380.9885,-0.244140625,0.13671875,0.078125,-0.0341796880.989,-0.15625,0.043945313,0.043945313,0.0292968750.9895,-0.1171875,0.0390625,0.009765625,0.019531250.99,-0.131835938,0.083007813,0.01953125,-0.0097656250.9905,-0.146484375,0.073242188,0.043945313,0.0048828130.991,0,0.043945313,0.078125,00.9915,0.053710938,0.112304688,0.078125,-0.03906250.992,0.151367188,0.083007813,0.073242188,-0.0097656250.9925,0.014648438,0.078125,0.068359375,-0.0097656250.993,-0.44921875,0.083007813,0.043945313,-0.03906250.9935,-0.3125,0.09765625,-0.024414063,00.994,0.263671875,0.107421875,0.01953125,-0.0488281250.9945,-0.009765625,0.0390625,0.053710938,-0.058593750.995,-0.629882813,0.063476563,0.0390625,-0.0537109380.9955,-0.3125,0.092773438,0.034179688,-0.058593750.996,0.366210938,0.09765625,0.0390625,-0.0732421880.9965,0.576171875,0.083007813,0.087890625,-0.0683593750.997,0.44921875,0.087890625,0.034179688,00.9975,0.375976563,0.024414063,0.014648438,-0.058593750.998,0.502929688,0.05859375,0.053710938,-0.1513671880.9985,0.693359375,0.043945313,0.05859375,-0.1708984380.999,0.532226563,0.014648438,0.009765625,-0.11718750.9995,-0.283203125,0.0390625,-0.029296875,0.0439453131,-0.932617188,0.078125,-0.034179688,0.19531251.0005,-0.883789063,0.083007813,0.029296875,0.214843751.001,-0.830078125,0.073242188,0.014648438,0.1416015631.0015,0.048828125,0.073242188,0.068359375,-0.0732421881.002,0.72265625,0.087890625,0.141601563,-0.3466796881.0025,0.7421875,0.078125,0.131835938,-0.4052734381.003,0.639648438,0.024414063,0.166015625,-0.2197265631.0035,0.615234375,0.0390625,0.1171875,0.0488281251.004,0.95703125,0.05859375,0.063476563,0.253906251.0045,1.137695313,0.048828125,0.078125,0.371093751.005,0.595703125,0.09765625,0.078125,0.2587890631.0055,0.063476563,0.102539063,0.068359375,0.1123046881.006,-0.185546875,0.063476563,0.068359375,-0.0878906251.0065,-0.3515625,0.078125,0.029296875,-0.0781251.007,-0.649414063,0.048828125,0.048828125,0.0537109381.0075,-0.76171875,0.102539063,0.078125,0.1513671881.008,-0.830078125,0.122070313,0.078125,0.136718751.0085,-0.68359375,0.073242188,0.078125,0.1660156251.009,0.21484375,0.083007813,0.112304688,0.175781251.0095,1.040039063,0.087890625,0.13671875,0.2099609381.01,0.751953125,0.083007813,0.078125,0.2197265631.0105,-0.126953125,0.087890625,0.09765625,0.0927734381.011,-0.576171875,0.107421875,0.107421875,0.0292968751.0115,-0.33203125,0.0390625,0.063476563,0.0292968751.012,-0.078125,0.078125,0.078125,0.0292968751.0125,0.180664063,0.048828125,0.078125,0.0146484381.013,0.44921875,0.014648438,0.078125,-0.0048828131.0135,0.986328125,0.0390625,0.0390625,01.014,1.23046875,0.063476563,0.01953125,0.0048828131.0145,1.157226563,0.024414063,0.092773438,-0.019531251.015,0.986328125,0.073242188,0.112304688,-0.0341796881.0155,0.498046875,0.126953125,0.063476563,0.0341796881.016,0.356445313,0.102539063,0.034179688,0.0537109381.0165,0.864257813,0.043945313,0.043945313,0.03906251.017,1.147460938,0.083007813,0.112304688,-0.0341796881.0175,0.473632813,0.0390625,0.073242188,0.0341796881.018,-0.336914063,0.092773438,0.078125,0.058593751.0185,-0.600585938,0.107421875,0.068359375,0.0146484381.019,-0.537109375,0.043945313,0.078125,0.0341796881.0195,-0.483398438,0.05859375,0.043945313,01.02,-0.44921875,0.034179688,0.009765625,01.0205,-0.629882813,0.078125,0.05859375,-0.0146484381.021,-0.654296875,0.0390625,0.043945313,-0.097656251.0215,-0.727539063,0.063476563,0.078125,-0.1513671881.022,-0.717773438,0.087890625,0.068359375,-0.1025390631.0225,-0.48828125,0.048828125,0.01953125,-0.0439453131.023,-0.33203125,0.05859375,0.009765625,0.019531251.0235,-0.2734375,0.09765625,-0.009765625,0.0927734381.024,-0.268554688,0.126953125,0.004882813,0.0878906251.0245,-0.380859375,0.09765625,0.073242188,0.03906251.025,-0.551757813,0.048828125,0.05859375,-0.0048828131.0255,-0.776367188,0.102539063,0.014648438,0.03906251.026,-0.72265625,0.083007813,0.063476563,0.019531251.0265,-0.68359375,0.078125,0.034179688,0.0097656251.027,-0.46875,0.0390625,0.073242188,0.0439453131.0275,-0.229492188,0.063476563,0.073242188,0.0146484381.028,0.034179688,0.092773438,0.063476563,0.0292968751.0285,0.1953125,0.068359375,0.078125,0.0439453131.029,0.263671875,0.0390625,0.09765625,01.0295,0.336914063,0.029296875,0.107421875,0.0341796881.03,0.390625,0.029296875,0.029296875,0.0292968751.0305,0.444335938,0.05859375,0.073242188,-0.0048828131.031,0.380859375,0.126953125,0.05859375,01.0315,0.234375,0.087890625,0.014648438,0.0341796881.032,0.092773438,0.083007813,0.073242188,0.0683593751.0325,0.5078125,0.063476563,0.063476563,0.0488281251.033,0.698242188,0.092773438,0.0390625,01.0335,0.46875,0.141601563,0.083007813,-0.0048828131.034,0.37109375,0.083007813,0.078125,-0.03906251.0345,0.356445313,0.083007813,0.078125,-0.1025390631.035,0.209960938,0.078125,0.078125,-0.0634765631.0355,0.278320313,0.043945313,0.078125,-0.0244140631.036,0.698242188,0.078125,0.073242188,0.0439453131.0365,1.015625,0.083007813,0.029296875,0.1220703131.037,0.37109375,0.053710938,-0.004882813,0.2001953131.0375,-0.439453125,0.102539063,-0.0390625,0.3662109381.038,-1.083984375,0.092773438,0.014648438,0.5029296881.0385,-1.459960938,0.048828125,0.063476563,0.4003906251.039,-0.673828125,0.053710938,0.053710938,0.1318359381.0395,0.532226563,0.09765625,0.014648438,-0.1220703131.04,1.030273438,0.09765625,0.01953125,-0.2832031251.0405,0.961914063,0.063476563,0.034179688,-0.35156251.041,1.11328125,0.1171875,0.09765625,-0.2685546881.0415,1.005859375,0.068359375,0.122070313,-0.1464843751.042,0.537109375,0.09765625,0.09765625,0.0537109381.0425,0.395507813,0.112304688,0.073242188,0.1611328131.043,0.541992188,0.073242188,0.073242188,0.1074218751.0435,0.439453125,0.083007813,0.078125,0.0048828131.044,0.068359375,0.083007813,0.073242188,-0.1025390631.0445,-0.395507813,0.073242188,0.024414063,-0.1025390631.045,-1.513671875,0.078125,0.0390625,0.4052734381.0455,-1.865234375,0.073242188,0.048828125,0.9423828131.046,-0.903320313,0.078125,0.043945313,0.6689453131.0465,-0.15625,0.09765625,0.043945313,0.0439453131.047,0.498046875,0.107421875,0.063476563,-0.35156251.0475,0.9765625,0.068359375,0.043945313,-0.3222656251.048,0.571289063,0.048828125,0.05859375,-0.1123046881.0485,0.068359375,0.073242188,0.083007813,0.058593751.049,0.043945313,0.073242188,0.05859375,0.156251.0495,0.09765625,0.043945313,0.048828125,0.0683593751.05,0.200195313,0.024414063,0.0390625,0.03906251.0505,0.102539063,0.078125,0.009765625,0.0634765631.051,-0.034179688,0.1171875,0.043945313,0.0732421881.0515,-0.41015625,0.09765625,0.048828125,0.1074218751.052,-0.72265625,0.068359375,0.009765625,0.019531251.0525,-0.29296875,0.092773438,0.034179688,0.03906251.053,0.415039063,0.073242188,0.034179688,0.0146484381.0535,0.239257813,0.0390625,0.01953125,0.019531251.054,-0.209960938,0.048828125,0.024414063,0.03906251.0545,-0.224609375,0.131835938,0.048828125,0.0341796881.055,0.107421875,0.102539063,0.073242188,0.0146484381.0555,0.649414063,0.048828125,0.083007813,0.058593751.056,0.971679688,0.078125,0.073242188,0.0244140631.0565,0.693359375,0.107421875,0.029296875,0.0341796881.057,-0.268554688,0.083007813,-0.024414063,0.0537109381.0575,-0.771484375,0.112304688,0.043945313,01.058,-0.60546875,0.068359375,0.043945313,0.0634765631.0585,-0.29296875,0.068359375,0.009765625,0.0781251.059,-0.083007813,0.073242188,0.01953125,0.0488281251.0595,0.078125,0.151367188,0.048828125,0.0439453131.06,0.380859375,0.087890625,0.053710938,0.0292968751.0605,0.810546875,0.078125,0.09765625,0.0341796881.061,0.698242188,0.063476563,0.102539063,0.0781251.0615,0.209960938,0.01953125,0.107421875,0.0292968751.062,-0.688476563,0.01953125,0.078125,0.0244140631.0625,-1.42578125,0.0390625,0.107421875,-0.0048828131.063,-0.322265625,0.083007813,0.0390625,01.0635,0.522460938,0.073242188,0.078125,-0.0244140631.064,0.439453125,0.043945313,0.043945313,0.0341796881.0645,0.268554688,0.05859375,0.014648438,0.0830078131.065,0.234375,0.024414063,0.01953125,01.0655,0.13671875,0.073242188,0.01953125,0.058593751.066,0.083007813,0.068359375,0.009765625,-0.0341796881.0665,0.170898438,0.0390625,0.0390625,-0.2294921881.067,0.180664063,0.087890625,0.102539063,-0.292968751.0675,0.1953125,0.048828125,0.05859375,-0.1220703131.068,0.244140625,0.112304688,0.073242188,-0.0244140631.0685,0.244140625,0.068359375,0.043945313,0.1464843751.069,0.268554688,0.043945313,0.078125,0.1074218751.0695,0.185546875,0.063476563,0.078125,-0.019531251.07,0.13671875,0.048828125,0.078125,-0.1708984381.0705,0.141601563,0.01953125,0.029296875,-0.0732421881.071,-0.092773438,0.048828125,0.05859375,0.1074218751.0715,-0.200195313,0.083007813,0.014648438,0.253906251.072,0.361328125,0.034179688,0.014648438,0.3027343751.0725,0.805664063,0.083007813,-0.014648438,0.2294921881.073,0.64453125,0.083007813,0.004882813,0.156251.0735,0.302734375,0.078125,-0.004882813,0.11718751.074,0.166015625,0.078125,-0.004882813,0.1123046881.0745,0.532226563,0.048828125,-0.009765625,0.1220703131.075,0.908203125,0.112304688,0.048828125,0.0634765631.0755,0.517578125,0.053710938,0.087890625,0.058593751.076,-0.3125,0.09765625,0.048828125,0.0683593751.0765,-0.961914063,0.087890625,0.05859375,0.058593751.077,-1.34765625,0.083007813,0.0390625,0.097656251.0775,-0.913085938,0.0390625,-0.009765625,0.0683593751.078,-0.09765625,0.01953125,-0.009765625,0.0537109381.0785,0.473632813,0.048828125,0.029296875,0.0634765631.079,0.610351563,0.05859375,0.009765625,0.0683593751.0795,0.405273438,0.048828125,0.05859375,0.0781251.08,0.073242188,0.09765625,0.053710938,0.0537109381.0805,0.0390625,0.112304688,0.014648438,0.1611328131.081,0.278320313,0.087890625,0.068359375,0.11718751.0815,0.063476563,0.112304688,0.107421875,0.058593751.082,-0.33203125,0.05859375,0.073242188,0.0341796881.0825,-0.502929688,0.05859375,0.0390625,0.03906251.083,-0.478515625,0.053710938,0,0.0781251.0835,-0.356445313,0.112304688,-0.0390625,0.1123046881.084,-0.190429688,0.09765625,0.01953125,0.0732421881.0845,0.185546875,0.063476563,0.0390625,0.0341796881.085,0.5078125,0.043945313,-0.034179688,0.1074218751.0855,0.415039063,0.05859375,0.01953125,0.0488281251.086,0.454101563,0.05859375,0.014648438,01.0865,0.532226563,0.048828125,0.014648438,0.0292968751.087,0.341796875,0.083007813,-0.034179688,0.0634765631.0875,0.073242188,0.073242188,-0.029296875,0.058593751.088,-0.981445313,0.068359375,0.048828125,0.0341796881.0885,-1.9921875,0.0390625,0.0390625,0.0683593751.089,-0.864257813,0.09765625,0.01953125,0.0781251.0895,0.209960938,0.13671875,0.0390625,0.0097656251.09,0.288085938,0.092773438,0.009765625,0.0439453131.0905,0.209960938,0.073242188,0.043945313,0.0292968751.091,-0.180664063,0.063476563,0.01953125,0.1123046881.0915,-0.361328125,0.01953125,0.078125,0.1855468751.092,0.327148438,0.05859375,0.063476563,0.2050781251.0925,1.03515625,0.087890625,0.048828125,0.1220703131.093,1.201171875,0.083007813,0.053710938,-0.0097656251.0935,0.659179688,0.073242188,0.01953125,-0.097656251.094,0.048828125,0.083007813,-0.004882813,-0.2783203131.0945,-0.0390625,0.068359375,-0.004882813,-0.3759765631.095,0.043945313,0.01953125,0.01953125,-0.27343751.0955,0.2734375,0.087890625,0.024414063,-0.1220703131.096,0.678710938,0.063476563,0.0390625,0.1123046881.0965,0.52734375,-0.004882813,0.078125,0.3613281251.097,-0.034179688,-0.004882813,0.087890625,0.3906251.0975,-0.258789063,0.078125,0.112304688,0.2978515631.098,-0.1171875,0.09765625,0.122070313,0.2050781251.0985,0.180664063,0.078125,0.13671875,0.2587890631.099,0.68359375,0.063476563,0.068359375,0.3662109381.0995,1.416015625,0.0390625,0.112304688,0.4052734381.1,1.870117188,0.092773438,0.01953125,0.4980468751.1005,1.235351563,0.068359375,0.053710938,0.371093751.101,0.25390625,0.05859375,0.073242188,0.0634765631.1015,-0.317382813,0.1171875,0.043945313,-0.1416015631.102,-0.375976563,0.068359375,0.073242188,-0.2001953131.1025,-0.46875,0.092773438,0.048828125,-0.1513671881.103,-0.56640625,0.112304688,0.053710938,-0.1074218751.1035,-0.620117188,0.014648438,0.004882813,-0.0683593751.104,-0.649414063,0.01953125,0.078125,-0.0537109381.1045,-0.25390625,0.034179688,0.102539063,-0.0292968751.105,0.478515625,0.05859375,0.092773438,0.0097656251.1055,0.478515625,0.048828125,0.078125,0.0341796881.106,-0.224609375,0.087890625,0.05859375,-0.11718751.1065,-0.463867188,0.107421875,0.043945313,-0.3906251.107,-0.25390625,0.068359375,0.09765625,-0.4541015631.1075,-0.092773438,0.141601563,0.087890625,-0.3417968751.108,0.185546875,0.092773438,-0.024414063,-0.27343751.1085,0.283203125,-0.004882813,0.029296875,-0.0781251.109,0.239257813,0.043945313,0.053710938,0.2587890631.1095,0.356445313,0.1171875,0.048828125,0.4345703131.11,0.380859375,0.043945313,0.078125,0.4980468751.1105,0.185546875,0.063476563,0.092773438,0.3613281251.111,0.107421875,0.083007813,0.09765625,0.1708984381.1115,-0.01953125,0.063476563,0.073242188,0.11718751.112,-0.205078125,0.014648438,0.053710938,0.058593751.1125,-0.283203125,0.029296875,0.009765625,0.0244140631.113,-0.3515625,0.063476563,0.009765625,-0.1074218751.1135,-0.302734375,0.014648438,-0.024414063,-0.2685546881.114,-0.4296875,0.05859375,0.01953125,-0.4833984381.1145,-0.556640625,0.073242188,0.014648438,-0.5175781251.115,-0.522460938,0.048828125,0.01953125,-0.4443359381.1155,-0.380859375,0.1171875,0.107421875,-0.4443359381.116,-0.458984375,0.107421875,0.078125,-0.2685546881.1165,-1.4453125,0.09765625,0.068359375,-0.1708984381.117,-2.314453125,0.087890625,0.034179688,-0.0146484381.1175,-0.9765625,-0.009765625,0.014648438,0.1660156251.118,0.673828125,-0.004882813,0.014648438,0.410156251.1185,1.069335938,0.034179688,-0.014648438,0.3906251.119,0.8203125,0.0390625,0,0.2197265631.1195,0.776367188,0.078125,0.073242188,0.03906251.12,0.786132813,0.05859375,0.083007813,0.0781251.1205,0.595703125,0.126953125,0.102539063,01.121,0.493164063,0.034179688,0.087890625,0.0048828131.1215,0.043945313,0,0.063476563,0.0292968751.122,-0.385742188,-0.004882813,0.0390625,-0.0634765631.1225,-0.180664063,0.034179688,0.014648438,-0.097656251.123,0.009765625,0.063476563,0.004882813,-0.0830078131.1235,-0.190429688,0.014648438,0.078125,-0.1025390631.124,-0.463867188,0.063476563,0.053710938,-0.0488281251.1245,-0.205078125,0.13671875,0.092773438,0.0341796881.125,0.09765625,0.092773438,0.141601563,0.0634765631.1255,0.283203125,0.107421875,0.112304688,-0.0341796881.126,0.400390625,0.083007813,0.102539063,-0.0292968751.1265,0.512695313,0.078125,0.107421875,-0.0878906251.127,0.571289063,0.009765625,0.107421875,-0.1269531251.1275,0.712890625,0.014648438,0.083007813,-0.1220703131.128,1.2890625,0.053710938,0.053710938,01.1285,1.279296875,0.063476563,0.146484375,-0.0048828131.129,1.34765625,0.107421875,0.131835938,-0.0292968751.1295,1.606445313,0.09765625,0.131835938,-0.0683593751.13,0.834960938,0.048828125,0.112304688,-0.0830078131.1305,-0.048828125,0.048828125,0.043945313,-0.0244140631.131,0.126953125,-0.01953125,0.009765625,-0.0927734381.1315,0.444335938,0.048828125,-0.029296875,-0.0830078131.132,-0.419921875,0.05859375,